_exercise,emg_chest_1,emg_chest_2,emg_chest_3,emg_chest_4,emg_chest_5,emg_forearm_1,emg_forearm_2,emg_forearm_3,emg_forearm_4,emg_forearm_5,emg_upper_arm_1,emg_upper_arm_2,emg_upper_arm_3,emg_upper_arm_4,emg_upper_arm_5,pitch_forearm_1,pitch_forearm_2,pitch_forearm_3,pitch_forearm_4,pitch_forearm_5,pitch_upper_arm_1,pitch_upper_arm_2,pitch_upper_arm_3,pitch_upper_arm_4,pitch_upper_arm_5,roll_forearm_1,roll_forearm_2,roll_forearm_3,roll_forearm_4,roll_forearm_5,roll_upper_arm_1,roll_upper_arm_2,roll_upper_arm_3,roll_upper_arm_4,roll_upper_arm_5
bicep curl,84.674208144791677,61.272315919385434,143.39160839164114,159.76881941585424,91.046894282160508,190.18510900872568,406.82928835874543,458.70135746607639,446.76182640885742,416.26779103249066,487.5989304814122,864.71369806676796,1047.8124228712522,1019.8239407651159,1022.9999999999985,-28.199090909091645,-34.161896338958215,-43.556371863431622,-36.594438502672105,-37.953155080217762,0.0,0.0,0.0,0.0,0.0,-61.53416289592694,-55.620970793908057,-41.087815713692429,-27.040941999173427,-17.81322089674336,0.0,0.0,0.0,0.0,0.0
bicep curl,28.471822295356109,100.28054298645561,139.66351295761083,38.812834224586524,99.456602221341413,272.63883175646697,212.6544631838658,216.96009872479988,165.27437268611158,121.89304812833423,922.51871657748063,883.07733443032282,1073.3044014808554,836.2883587000274,623.97120526525441,-44.400740436033651,-34.944232825994476,-32.371657754011295,-33.919284245166743,-32.408679555737145,0.0,0.0,0.0,0.0,0.0,-11.520785684907331,-31.074282188404435,-37.436565199509282,-50.380106951875341,-54.743245577953559,0.0,0.0,0.0,0.0,0.0
bicep curl,108.81777046480234,16.032908268186151,83.74290415470216,147.72932949403085,81.683257918535247,994.31756478819341,942.50143973675767,1061.9160839160766,871.77951460287898,288.73673385424161,1022.9999999999985,1022.9999999999985,1022.9999999999985,1022.9999999999985,1022.9999999999985,-13.302320032905691,-15.450974907451126,-31.280793911973287,-32.454405594405898,-33.271143562318699,0.0,0.0,0.0,0.0,0.0,34.461921020158719,31.286042780742669,16.459366515830759,-4.3416166186823482,-15.961703002882928,0.0,0.0,0.0,0.0,0.0
bicep curl,132.14191690662446,76.916906622771805,27.977375565608924,92.905800082293652,158.13204442616438,114.90456602224207,170.03743315509331,183.06375976963113,142.22089675030634,177.97285067874998,609.64911559046925,995.30234471417191,1040.6482928835803,1025.6260798025492,1022.9999999999985,-28.180789798436116,-28.966412998766714,-31.837758124228362,-27.746873714521147,-31.681958041959366,0.0,0.0,0.0,0.0,0.0,-61.169238996298091,-55.657716988888275,-35.384426162066021,-20.075516248451763,-9.445927601806682,0.0,0.0,0.0,0.0,0.0
bicep curl,88.975730152172716,57.912793089297509,173.82064993832793,168.83504730560932,116.68696009869686,155.50802139037168,179.39037433156528,189.07116412998562,202.98601398601167,169.82723159193506,452.76429452911071,844.85767174015621,1040.726038667231,1014.989304812833,1022.9999999999985,-28.354611271082341,-30.865063759771122,-35.140074043603796,-33.107317976141154,-33.438272315919527,0.0,0.0,0.0,0.0,0.0,-61.488942821882894,-55.643447141090064,-41.427671740019619,-29.781883998350995,-22.926791443848373,0.0,0.0,0.0,0.0,0.0
bicep curl,98.958453311361751,44.35294117647998,54.512134923887658,54.211435623222997,225.04031262858766,3.7498971616647268,75.654463183946717,472.09954751144869,689.17359111476321,500.38214726453964,135.34635952287644,569.36363636385727,1064.2945290004736,993.14273961332663,1022.9999999999985,-31.654640065816309,-30.771036610447553,-30.598827642948027,-39.926655697244009,-29.620830933767689,0.0,0.0,0.0,0.0,0.0,-58.219506375977041,-59.162879473468287,-56.301641299868876,-21.128095433964305,6.8424886877918638,0.0,0.0,0.0,0.0,0.0
bicep curl,134.05183052239161,69.392842451640519,38.023035787756854,125.12464006585387,152.80419580416941,339.21431509668116,644.29370629388188,1057.6659810777983,997.8218839983532,1022.9999999999985,1023.7716988893445,1022.9999999999985,1022.9999999999985,1022.9999999999985,1022.9999999999985,-42.741760592348299,-29.342657342652799,-22.078975730149839,-17.125808309335458,-16.160732208971247,0.0,0.0,0.0,0.0,0.0,-1.9893253804930549,19.90385438092035,37.297062937070464,54.658321678323809,45.147079391189898,0.0,0.0,0.0,0.0,0.0
bicep curl,87.935417523606475,3.5968737145137961,65.795146030471003,147.58864664747026,74.270259152586931,510.21225832997908,775.8737145208903,1061.9909502262433,740.61373920181893,353.61497326193324,1022.9999999999985,1022.9999999999985,1022.9999999999985,1022.9999999999985,1022.9999999999985,-48.919814890988953,-40.226861373916613,-27.67785273549817,-37.923253805023478,-49.819016865491115,0.0,0.0,0.0,0.0,0.0,17.06492389963292,23.630789798439757,33.292414644180369,26.416499382965643,14.402554504313173,0.0,0.0,0.0,0.0,0.0
bicep curl,156.35870012343639,151.72562731383044,25.364047716954786,132.33484162901482,210.81818181816385,400.41341011934639,861.96256684509137,1068.4784039489768,1030.9962978198298,1008.0612916494572,1022.9999999999985,1022.9999999999985,1022.9999999999985,1024.9580419580404,1039.5022624434421,-44.28541752364859,-30.833253805015609,-30.993702180174203,-34.41018099547653,-43.643990127523445,0.0,0.0,0.0,0.0,0.0,25.246976552862112,37.963747429044851,39.069786096254234,30.981398601396503,24.811172357050491,0.0,0.0,0.0,0.0,0.0
bicep curl,38.505964623636274,151.27725215965518,210.63430686957344,81.921020156267545,37.179350061726602,72.331139448836254,299.96585767180113,308.67544220484308,332.41505553272282,383.90127519538436,316.95146030443806,697.05923488294809,1054.9304812834584,1005.6137392019731,1022.9999999999985,-34.536236116824327,-30.944590703412405,-34.00305224187899,-42.260218017277516,-40.875890580011017,0.0,0.0,0.0,0.0,0.0,-55.497490744549552,-58.702595639655499,-49.249843685717416,-22.415351707110215,-14.901349238992028,0.0,0.0,0.0,0.0,0.0
bicep curl,63.505964623717858,772.8515014400117,1091.6869600987011,1033.9880707527755,1022.9999999999985,125.79843685729016,260.39531057183973,361.49362402303586,293.16906622787644,333.8519127931051,512.20773344310317,673.16207322096864,813.65158371043708,916.79350061707055,874.65199506368253,-24.184302756068103,-30.479387083508694,-46.458408062532918,-61.244574249282337,-59.125952283007948,0.0,0.0,0.0,0.0,0.0,-66.076190867953898,-52.707828054291014,-29.123916083907549,-8.16981489098516,0.8311723570582914,0.0,0.0,0.0,0.0,0.0
bicep curl,75.859317153436422,74.528177704646055,73.03743315508116,76.830111065406157,76.461538461536492,98.609625668462627,173.46400658173664,518.7297408474833,615.74125874127083,611.76758535577039,715.312628548009,919.80090497742879,1045.9033319621631,1016.0403126285397,963.98683669264847,-22.454775812422792,-25.417840394902779,-38.62460715755217,-47.970436034558482,-59.691205265324371,0.0,0.0,0.0,0.0,0.0,-67.50980666392428,-62.253171534341632,-38.740695187158131,-21.384668860544156,-0.81677498970860785,0.0,0.0,0.0,0.0,0.0
bicep curl,75.654463183874853,74.143973673384707,78.769230769232493,77.009049773752992,72.832990538873617,138.04853969563632,279.76799670922094,387.95310571782733,366.09913615798934,557.22953517074325,453.41299876600351,709.16248457436791,980.1332784862459,847.69436445901863,897.62772521600129,-17.959144385028402,-28.783932538053541,-35.342686137395049,-46.092394076515355,-55.573628136571294,0.0,0.0,0.0,0.0,0.0,-72.675549156723832,-58.6540600575836,-41.447330316734316,-19.669206088022484,-2.0365775400999153,0.0,0.0,0.0,0.0,0.0
bicep curl,16.096256684469424,268.78486219687642,1069.4315096669168,747.32908268185042,321.65569724382539,359.653640477181,397.55532702590182,243.72357054704588,212.61044837516329,240.75524475525691,679.73837926778344,474.08103661036404,440.53846153851191,513.44878650757698,418.16824352126503,-35.036038667216005,-36.744644179349898,-36.564664747021467,-56.396322501035328,-65.291995063755962,0.0,0.0,0.0,0.0,0.0,38.772307692308118,35.134236939528805,29.152237762232144,0.78426162072435845,-6.7613574660653821,0.0,0.0,0.0,0.0,0.0
bicep curl,65.111065405271091,441.52653229127174,152.16577540095099,100.88111888111436,67.825174825173519,231.88564376803089,319.71452077339399,443.30769230769988,392.50596462360522,375.40888523238522,535.07116413004724,711.86343068701478,932.86589880711392,815.4039489921372,813.58371040723057,-25.058313451256911,-32.662369395313782,-44.438037844513929,-58.387474290416833,-49.71191690661837,0.0,0.0,0.0,0.0,0.0,-60.428083093371434,-44.022344714103454,-25.887778691887771,-2.5392760180916394,15.267914438507642,0.0,0.0,0.0,0.0,0.0
bicep curl,160.36857260376155,78.393665158356711,110.30933772114233,225.2385849444687,120.26573426573057,384.81653640487451,841.51048951064104,1063.0592348827668,807.02550390765532,278.75820649952448,627.02797202796035,415.04154668854085,385.78239407659572,834.40518305240369,1061.1475935834953,-30.358362813653098,-20.361332784859215,-20.062143150968154,-21.245141916906867,-23.111455368157358,0.0,0.0,0.0,0.0,0.0,-48.156849033326949,-67.143068696015092,-70.327980255037446,-68.853356643356307,-66.791252982316308,0.0,0.0,0.0,0.0,0.0
bicep curl,8.2801316331784562,771.70835047333264,1092.5623200328846,1040.8757712875365,1005.5849444672866,225.70218017275042,179.91855203618709,197.94364459073364,277.18634306869376,268.75853558207399,458.43068696010664,578.49074454962636,683.37227478403304,690.18222953521467,767.65322912373222,-51.087149321266374,-51.343216783218573,-49.112727272722253,-35.259757301519699,-33.183307280951247,0.0,0.0,0.0,0.0,0.0,14.802645002056757,8.8782887700472575,-10.778951048959181,-37.42213492390858,-51.934627725220821,0.0,0.0,0.0,0.0,0.0
bicep curl,274.62361168232974,748.70876182665359,1083.1032496914827,1023.6853146853135,1022.9999999999985,196.7256273138857,308.80954339781431,391.9802550391085,398.06458247629996,260.29617441381208,630.55738379267643,774.31509666814543,1078.1073632250464,957.50349650346516,968.25257095846518,-35.738482106132579,-45.747926779108063,-56.670477169889381,-47.679930069926421,-45.541912793088777,0.0,0.0,0.0,0.0,0.0,-47.779551624838675,-23.550913204433517,-7.1581365693075485,10.451925133696266,21.900835047308,0.0,0.0,0.0,0.0,0.0
bicep curl,867.96454134111593,909.15713698073239,1048.5697243932491,1029.8992184286285,1023.2879473467693,123.90859728505839,84.462772521580064,74.687371452081322,76.143562320036352,99.416289592779449,97.669683257914471,130.9354175236617,145.65693130398139,118.8757712875873,402.42739613336624,-24.178640065816257,-23.67838338132443,-24.279461127108242,-23.834500205676772,-25.295750719868927,0.0,0.0,0.0,0.0,0.0,-65.787208556150077,-66.30234471410941,-65.646577540106748,-65.88109419991747,-64.529489921842085,0.0,0.0,0.0,0.0,0.0
bicep curl,-53.293294940228108,761.365281777321,1091.4997943233002,1033.9765528589046,1022.9999999999985,409.27437268621208,567.27560674620634,470.27231591933548,414.15302344713962,438.49321266970873,249.66104483747452,247.8317564788675,478.94076511730316,572.16330728102776,925.92719045672027,-24.733895516248399,-25.898700123405934,-24.483406005758873,-28.728626079805565,-36.05874948580923,0.0,0.0,0.0,0.0,0.0,-65.3120156314274,-63.700518305223945,-65.526384204031288,-58.087577128748038,-46.703422459890881,0.0,0.0,0.0,0.0,0.0
chest flye,215.24845742492883,415.47881530248026,877.66227889768163,956.67873303166118,899.49485808306326,108.89510489509803,159.41752365286055,228.70259152612692,249.18017276841874,233.91279308925658,356.566844919799,572.19498148927823,1079.9473467709404,816.45166598095034,549.32867132862395,-18.862324146442759,-19.021752365279156,-8.4270876182635099,-21.870456602224809,-15.18482517481827,0.0,0.0,0.0,0.0,0.0,20.56528589058086,19.649090909089008,16.453504730569357,43.680542986433558,66.136713286722753,0.0,0.0,0.0,0.0,0.0
chest flye,259.49321266971708,416.95104895109768,567.4533113945098,543.87248046071534,581.16947758126742,177.22706705060185,181.46770876182148,186.40765117236626,186.5470999588666,184.80008227067472,561.22583299058556,816.01357466075069,1050.8099547510988,657.56478815289324,487.10366104480465,-21.333085150144569,-20.495512134922787,-18.434035376388071,-18.712575071986901,-17.883336075687545,0.0,0.0,0.0,0.0,0.0,18.820588235292586,14.366223776223785,13.150793911970894,19.539452900045973,35.501480872075177,0.0,0.0,0.0,0.0,0.0
chest flye,804.27972027980275,952.23611682440458,989.43397778690519,917.34348004932679,741.41011929236288,248.48663101606815,368.17359111478845,274.32085561494182,298.04895104895371,202.36404771693961,481.16495269439793,493.04936240227528,392.52982311802884,338.16042780745101,240.31509666801725,-7.1665199506376158,-9.0913368983968805,-12.529847799260898,-13.492344714109636,-15.839843685727381,0.0,0.0,0.0,0.0,0.0,79.294751131223251,79.501637186341711,77.181842863017707,74.76532291238135,73.645557383791598,0.0,0.0,0.0,0.0,0.0
chest flye,656.27478403949681,750.35499794334442,971.98889345945463,782.87700534757937,918.62361168244001,193.63101604278552,214.44672974084421,250.49814890993559,314.88934594820023,334.56972439325494,792.83874948576135,664.88728918136928,485.54051830516784,491.55285890578591,345.74208144791555,-12.640374331550795,-18.788276429453134,-10.101238173588595,-4.2438379267764077,1.0842616207303872,0.0,0.0,0.0,0.0,0.0,18.835244755247206,23.984792266560053,51.392060880307362,71.635043192106295,75.387379679146619,0.0,0.0,0.0,0.0,0.0
chest flye,832.42986425339791,841.0518305224341,956.62237762239613,834.38831756466436,461.21760592335585,127.67132867131592,202.06663924313236,262.33689839573987,249.04236939530114,209.74660633481463,217.46770876186068,230.30769230765944,185.71122994655875,274.17523652818443,250.61415055532635,-1.6880872069115926,-6.6342616207329037,-6.8793212669695176,-9.0577498971603614,-7.9439942410553748,0.0,0.0,0.0,0.0,0.0,87.179271904564487,81.837972027971631,82.642188399834225,79.721151789387221,78.423517071161939,0.0,0.0,0.0,0.0,0.0
chest flye,848.03496503511099,1009.9271904566145,1080.7535993418394,859.2410530643939,250.18552036191537,338.67256273147495,502.28794734677689,622.34265734279404,1043.0353763883331,681.79761415040934,193.12422871247497,266.77951460308526,344.69148498560128,323.59234882763678,344.69642122583809,9.2355121349245586,6.1267256273122115,2.2926326614535486,-1.3357219251341865,-0.027441382145724724,0.0,0.0,0.0,0.0,0.0,73.470292060877796,66.135750719865953,60.601238173591398,68.868963389551297,59.940530645821688,0.0,0.0,0.0,0.0,0.0
chest flye,442.61538461542875,540.63883175653825,747.31838749488668,557.92965857667036,744.9621554917087,120.00205676677463,206.81694775816391,334.0164541341253,320.45701357464367,256.07404360344759,447.55285890580456,585.7716988894573,1032.7239819005113,665.61003702163293,379.45742492797785,-14.459773755655018,-10.816783216782202,-11.118288770053269,-12.178975730151933,-6.5039448786466201,0.0,0.0,0.0,0.0,0.0,31.760106951872842,29.79830522418554,23.356166186755111,38.428934594829087,75.274417935011343,0.0,0.0,0.0,0.0,0.0
chest flye,478.65322912391656,769.72974084737177,387.20074043591887,408.7404360346456,806.20732208973334,141.74989716169128,265.53599341837804,255.07116412997198,245.36651583709806,252.65939942411495,338.73262032093851,818.72850678748796,985.37679967088332,768.58329905381424,626.47716988886214,-15.100049362401499,-7.5533813245560903,-10.445396955986233,-11.546355409295613,-6.5552406417107631,0.0,0.0,0.0,0.0,0.0,22.868572603865914,21.151213492391619,29.8013451254674,42.053229123822106,49.071863430687543,0.0,0.0,0.0,0.0,0.0
chest flye,899.73179761413655,794.47470176887271,1069.9469354175203,750.3562320032305,916.60921431519694,47.843274372687922,51.539695598526919,115.11723570553153,347.03619909507842,331.85849444666201,240.54134101189263,187.85643767997485,200.51090086382882,169.29576306047733,195.78198272316359,4.6641135335250192,-0.63319210201673115,1.1941423282599093,-3.5218428630219378,-10.607589469357055,0.0,0.0,0.0,0.0,0.0,82.185096668039449,90.298946935418485,89.265199506375382,85.431727684078325,79.066194981485637,0.0,0.0,0.0,0.0,0.0
chest flye,453.57260386676853,526.45043192102924,468.27108185926778,419.60674619501555,495.06581653640689,47.396955985276989,446.26285479234684,325.1061291648644,237.89222542162918,216.21431509666078,183.88687782816129,842.57507198704764,1103.9995886466281,934.58576717396477,876.0308515013952,-22.365273549979225,-14.512768408058742,-5.535351707115856,-8.1837186343065262,-8.1714603044000818,0.0,0.0,0.0,0.0,0.0,16.730037021801358,16.514245166599093,25.989905388731316,25.809856026332771,52.190267379685537,0.0,0.0,0.0,0.0,0.0
chest flye,346.19457013581916,789.93459481710431,1045.9358288770163,1019.7577128753668,1000.7013574660431,295.02015631422699,269.44385026743464,593.52241875781453,676.03249691483506,644.97326203206444,79.964623611696211,231.0238584945613,587.52858905806897,503.94076511716929,527.2587412588698,-18.241637186342377,-13.849111476755059,-6.9805224187587287,-16.80512957630944,-22.711246400658471,0.0,0.0,0.0,0.0,0.0,1.8268860551203669,1.0190045248869808,2.834282188401537,9.5931591937504166,17.726631016047953,0.0,0.0,0.0,0.0,0.0
chest flye,1022.4068284656723,1018.3669271904548,1045.8860551213388,912.70341423279103,960.53846153850748,187.77844508427157,137.6585767173915,146.73344302756678,170.33113944879224,209.79925956398264,200.63315508039648,707.34965034977802,891.97408473885059,995.95146030441572,1016.8638420403203,-11.992078979842759,-28.949469354177445,-24.170670505965727,-29.473418346359612,-20.989444672958516,0.0,0.0,0.0,0.0,0.0,-54.724379267781501,14.355693130408874,15.255100781576095,23.03648704236727,19.69681201152066,0.0,0.0,0.0,0.0,0.0
chest flye,149.31797614158617,784.15343480073568,1089.8844097079173,1033.0320855614964,1022.9999999999985,224.11929247225672,267.7651172357327,370.43809132047613,374.54668860550055,335.45907034138992,494.20649938295048,365.97860962559224,192.56807897980596,198.00946112716048,394.19169066233781,-8.8000863841997994,-10.871999177296196,-19.987305635541894,-17.742443438913018,-5.4348951048900815,0.0,0.0,0.0,0.0,0.0,80.341888111891791,77.866314273958125,68.987984368571347,70.234138214727565,83.437906211440051,0.0,0.0,0.0,0.0,0.0
chest flye,134.26984779930004,542.05018510923742,1080.3504730564141,988.78897573015058,1044.2447552447413,401.75154257511576,439.23693953103401,308.45783628132045,261.63883175649318,355.62690250929194,150.99259563964625,172.49033319622598,199.09419991773748,199.41711229945093,228.1916906623479,2.5422788975781261,-6.2692636775018959,-4.746301933359967,3.3815590292099706,16.362213081038387,0.0,0.0,0.0,0.0,0.0,78.341826408889006,76.968593171535474,87.192237762240836,82.169670917311109,65.098440970789653,0.0,0.0,0.0,0.0,0.0
chest flye,39.472645002343796,783.554504319476,1096.8930481283228,989.52283011099018,646.25051419155761,257.44524886899194,547.2459893049471,666.66762649110694,519.87412587411598,518.2825997531578,125.26524064194496,382.9646236118117,580.41916906622794,558.50596462360647,486.29658576717748,-28.149966269025768,-22.113463595226055,-18.473648704237199,-20.271048951047383,-15.274508432743563,0.0,0.0,0.0,0.0,0.0,4.0795475113199142,7.1529823118073361,10.604380913204761,9.0148004936249464,17.396351295767236,0.0,0.0,0.0,0.0,0.0
chest flye,776.54298642534479,891.10119292475486,1061.0320855615214,1007.5314685314696,1015.1879884820473,722.47716988883258,573.64171122991797,483.85602632660454,585.39201974498962,496.32044426157148,447.38831756481983,488.71081859317098,480.04936240232263,521.6593994240643,299.30316742075331,-4.2018305224235917,-15.432418757710247,-4.4250966680400641,-17.422949403538162,-11.963422459892989,0.0,0.0,0.0,0.0,0.0,62.020781571362114,41.954450843267807,24.244619498141851,14.362825997531651,12.057128753598219,0.0,0.0,0.0,0.0,0.0
chest flye,283.11476758542892,849.11723570567062,1092.133278486207,984.82394076503749,628.8922254214948,410.50390785684846,416.18222953518728,521.43932538053662,563.12464006582354,589.94940353765401,356.98642533934969,349.29740847388854,353.71781160014251,241.79144385022332,162.22583299053261,-19.403336075690174,-20.139831345124303,-15.552011517892844,-16.498395721927778,-25.364845742494399,0.0,0.0,0.0,0.0,0.0,52.475812422867612,42.153994241047982,26.523488276424374,18.052496914847762,14.297951460304505,0.0,0.0,0.0,0.0,0.0
chest flye,39.770876182741915,779.3907856851705,1090.4315096667806,1033.7116412998757,1022.9999999999985,1023.3628136569317,1015.2628547922269,783.11353352520439,691.63471822300016,873.61785273546695,313.40230357885667,534.22542163720288,420.5577951459897,412.53928424518608,445.58617852733209,4.2743644590739986,2.0645372274741134,-7.5647429041551923,-5.2191320444266838,-11.800333196217784,0.0,0.0,0.0,0.0,0.0,81.422110242697386,74.420534759352108,49.51566844918834,30.000057589462262,13.617811600162009,0.0,0.0,0.0,0.0,0.0
chest flye,412.79226655685619,586.68778280562458,1079.1583710407708,1000.4969148498548,1022.9999999999985,354.87741670091725,413.27025915265182,510.28177704653024,674.29494035375785,519.32414644176617,745.51748251745187,545.98971616609845,354.96215549154982,434.96051007818085,467.23035787740639,-9.7069642122531796,-6.571353352530549,-11.02663101604333,-16.364878650764073,-22.148831756480828,0.0,0.0,0.0,0.0,0.0,77.594014808729,81.092443438913833,78.731053064581232,70.787235705466657,63.704524886876456,0.0,0.0,0.0,0.0,0.0
chest flye,169.7992595638251,776.8251748254271,1087.7046482928613,1033.1818181818171,1022.9999999999985,848.65553270260364,525.35088440964864,618.91402714938715,675.28424516659072,681.90456602223492,265.7481694775949,188.13286713289909,435.06375976972657,547.47799259566193,585.20567667628131,-19.962008227064238,-18.315331139448134,-17.393969559851243,-18.505133689840477,-13.477252159603959,0.0,0.0,0.0,0.0,0.0,15.090083093364399,9.9228465651964743,6.1215508021382377,4.5947264500217946,14.058107774581515,0.0,0.0,0.0,0.0,0.0
bench press,293.46770876190675,497.88399835468977,855.8227067050916,499.10242698460843,216.73056355407044,99.390374331545445,75.658165364036549,54.431921020150838,39.132867132861008,28.118469765527148,335.9020979020861,174.46976552853036,122.84368572603542,87.953928424503545,73.339777869189177,-7.7451624845730818,-3.9888852324134185,-5.7125421637189469,-2.3218017276838174,0.14477581242274973,0.0,0.0,0.0,0.0,0.0,82.13718222953635,85.808531468532479,84.329740847387569,87.340090497737393,85.651057178114186,0.0,0.0,0.0,0.0,0.0
bench press,33.292472233596747,304.92019744986283,984.00617030028195,398.93582887688007,383.33607568906154,135.46236116821922,173.01439736737331,231.41875771285083,100.02097902095186,80.353352529830659,461.43397778684675,399.71205265332566,775.4557795146352,563.82064993820825,384.15631427391662,-8.2980255039095265,-9.3644220485383673,-1.0990785684886153,-6.7926079802591746,-13.571283422458654,0.0,0.0,0.0,0.0,0.0,81.224471410940723,80.233146853146991,85.286556972440863,81.32972850678388,74.909991772933154,0.0,0.0,0.0,0.0,0.0
bench press,321.81900452502276,778.19703825601061,1078.4730563554253,1015.1620732208954,1026.0292060880283,115.55614973259897,64.333196215547858,81.515837104068751,48.019744960914991,68.039078568500756,393.63595228299198,477.17976141509769,476.57466063342741,280.90497737554011,275.81160016452469,-9.0753105717840938,-10.609115590290624,-3.2961620732190462,-8.8179185520386785,-13.910567667628113,0.0,0.0,0.0,0.0,0.0,80.801846976549768,78.921871657755247,85.957877416702416,79.559489921840324,75.86609214314916,0.0,0.0,0.0,0.0,0.0
bench press,293.8354586590807,507.27354997956593,1065.0719868367657,619.5290004111564,349.57712875360488,93.50143973671716,91.454545454537183,55.5841217605916,82.152200740438502,70.195804195805906,182.04771698887973,230.3829699712451,276.81612505138844,149.75771287534934,189.67544220485823,-7.4478815302347714,-9.3894405594399242,-0.34607980254875714,-2.1742657342678817,-4.2111517893874106,0.0,0.0,0.0,0.0,0.0,82.45587823940717,82.408568490334162,85.668535582064052,79.699633895514992,80.968218839982924,0.0,0.0,0.0,0.0,0.0
bench press,23.805841217540376,360.53846153873349,1081.925545043292,970.04936240230154,976.27478403939961,183.97285067874267,189.98683669269937,110.72439325378672,59.303990127501592,48.12546277252688,220.52776635130209,310.91896338956286,256.80090497733875,216.21554915671979,184.99753187988264,-6.0172891814072313,-8.0676388317556409,-7.0049115590289812,-6.1184162895911101,-2.7718428630211149,0.0,0.0,0.0,0.0,0.0,83.846433566433006,81.769300699301382,82.511131221719538,83.762673796792456,84.974701768817454,0.0,0.0,0.0,0.0,0.0
bench press,389.63800904975136,504.1809954751854,637.74043603453947,502.79391197032487,395.28218839981361,128.20608802962818,111.32373508842171,43.106540518297315,94.828054298661527,106.58288770053196,262.91443850269133,180.17811600161184,151.88770053475568,129.98190045248677,150.9650349650268,-4.5324146441820945,-14.387679967091133,-5.7404566022187229,-5.5283792677906565,-8.4914397367358845,0.0,0.0,0.0,0.0,0.0,85.503636363633262,75.185623200329474,82.648120115180049,77.625832990537717,70.850621143559479,0.0,0.0,0.0,0.0,0.0
bench press,305.11106540523264,427.79020979026325,521.35911147673949,341.27025915256945,367.46935417525549,131.01480872067251,86.165364047709787,66.188811188797345,40.099958864661346,34.681201151784336,133.80172768408374,145.94199917727855,100.5845331139499,140.91814068283736,44.70505964621848,-7.5615178938717298,-13.061345125461811,-14.313150966680746,-15.637387906207019,-1.2012751953937,0.0,0.0,0.0,0.0,0.0,78.809292472231647,73.791826408886266,73.773406005757806,68.538358700126253,80.09375565610857,0.0,0.0,0.0,0.0,0.0
bench press,309.82887700537725,402.81694775817238,569.06869600989398,424.91690662271276,310.33196215551158,61.98066639243067,70.14191690662328,48.034553681617453,93.966269025099706,61.860962566830267,136.14561908680767,107.14273961332481,156.9535170711691,117.54422048538621,123.63718634305988,-9.067869189634747,-4.3498313451242989,-16.495985191281644,-7.2724475524434729,-10.430637597701525,0.0,0.0,0.0,0.0,0.0,81.482990538872144,81.054220485396328,70.926663924307931,71.55262854792403,71.769584533110205,0.0,0.0,0.0,0.0,0.0
bench press,388.32661456201367,863.15466886071454,1091.5660222130414,778.58741258725229,376.68243521176896,241.95146030440833,119.42616207315987,43.431509666880316,632.84985602657423,1064.6861373920578,522.4771698889291,435.22706705056993,653.97079391213003,1061.7116412999258,1015.8877005347487,-12.303669271906896,-6.0246359522820212,-23.375376388322699,-18.812102015626774,-15.833282599755398,0.0,0.0,0.0,0.0,0.0,76.598029617438769,83.270090497737485,62.566717400241515,67.032694364462415,67.576947758122472,0.0,0.0,0.0,0.0,0.0
bench press,456.80049362404765,814.05635540943592,1055.3364870423893,889.9095022623269,467.46894282175168,26.029617441380893,53.036199095035059,81.823529411764824,51.974084738775694,23.850678733030044,159.66022213082078,255.47552447554608,275.89222542162219,189.80049362399467,161.19909502262186,-17.14543809132461,-6.0375606746178523,-24.206783216785372,-5.0685602632605518,-18.169329494039864,0.0,0.0,0.0,0.0,0.0,72.459506375973277,81.997457836282592,64.196380090491232,68.512369395315673,68.514944467296615,0.0,0.0,0.0,0.0,0.0
bench press,878.95433977776122,411.74619498159007,1091.1744138215645,979.07363225010147,1024.8428630193321,164.40271493212225,110.82640888520967,70.862607980249123,68.469354175235793,67.436445907032407,270.91772932942712,142.09749074452543,88.459893048109663,105.54298642538407,275.75318798852732,1.1990456602226713,4.3772151378046154,9.8802385849462393,6.5421925133628287,-11.487951460308228,0.0,0.0,0.0,0.0,0.0,86.889127930891576,84.513368983956425,79.691164129986007,80.854298642534587,80.631818181815348,0.0,0.0,0.0,0.0,0.0
bench press,892.37885643765719,925.42451665986607,1046.197038255857,1024.7161661867531,1022.9999999999985,139.32579185518236,113.31921020156121,103.65775401069097,130.91608391609842,160.3019333607574,94.782394076517789,140.73632250103731,111.36980666391474,132.65569724394285,144.69683257920056,21.196491155905562,20.439276018097392,8.6379391197011284,13.896939531057381,2.5638502673753476,0.0,0.0,0.0,0.0,0.0,69.450263266142372,69.287564788155109,79.819387083507351,76.104319210199208,78.500785684906802,0.0,0.0,0.0,0.0,0.0
bench press,429.79967091739354,916.11394487878499,1075.9765528588914,1029.4500205676663,1022.9999999999985,325.8667215137886,283.04977375562663,211.67297408474215,331.86055121356594,557.91073632256848,50.3492389962978,89.513368983995349,244.1538461539015,369.88276429457375,492.71740024684607,-2.3290250925582043,-22.985047305634492,11.227696421237985,23.136330728093235,16.235857671740671,0.0,0.0,0.0,0.0,0.0,77.192797202793017,65.234940353763605,73.152904154668576,65.373714520774186,69.845442204852716,0.0,0.0,0.0,0.0,0.0
bench press,1022.9999999999985,1027.0658165364032,1102.1394487865168,797.30193336064588,819.59399424116748,170.15425750718168,170.81201151790341,206.08720691075072,213.67050596461493,189.85643767996194,98.919786096256743,69.300287947338916,94.982723159216931,203.67749897167764,366.0497737556579,18.198490333195164,15.49143562319996,11.163558206497552,11.870695187164976,3.2936733854362799,0.0,0.0,0.0,0.0,0.0,71.723948992185214,74.205002056766688,76.864138214727873,77.080411353352844,82.212320032909417,0.0,0.0,0.0,0.0,0.0
bench press,386.75565610870837,929.83175647896303,1055.4631838749356,1028.6668037844497,1022.9999999999985,118.63348416284131,100.5084327437519,175.807075277666,133.66968325791115,160.53475935830281,425.93870835048938,432.43850267379162,401.09584533113582,406.29370629368412,308.33566433565079,-4.5418552036153672,7.7932250102823044,-8.010320855615392,9.4152612093857275,13.519625668446142,0.0,0.0,0.0,0.0,0.0,81.637996709175383,81.680621143559904,79.330419580419388,77.596548745370512,74.988506787332526,0.0,0.0,0.0,0.0,0.0
bench press,279.06622788976625,726.69765528610912,1085.2801316330742,1021.9518716577528,1022.9999999999985,49.921842863024416,84.796380090513168,125.77457836282366,134.60468942821558,119.76923076923353,61.503085150152444,100.10407239820246,116.12834224599167,109.61538461537461,95.988893459497334,-6.7116865487413575,-0.21402303578882131,-0.39388317564185293,19.367375565613052,12.606207322087442,0.0,0.0,0.0,0.0,0.0,73.893788564379577,84.034627725217987,82.996820238581833,69.703788564374463,75.510460715757304,0.0,0.0,0.0,0.0,0.0
bench press,836.64500205669481,627.23940765125269,1063.7416700946678,995.75730152200606,1022.9999999999985,1011.7034142328313,970.77828054295583,861.5997531879425,732.21513780332577,628.98642533933116,259.85232414642417,187.98765939939861,105.29452900038781,77.046071575480582,81.349650349647462,-10.765207733442388,1.8769230769303573,11.902426984775232,0.85170300288309775,18.548531468532079,0.0,0.0,0.0,0.0,0.0,77.851855203622378,81.277556561084396,78.395162484574939,78.275627313859374,70.954989716168257,0.0,0.0,0.0,0.0,0.0
bench press,932.24516659805397,901.12916495273532,1045.4627725216051,1018.012751953927,1022.9999999999985,446.61661867546042,386.46236116820279,276.69189633891096,156.84862196623874,154.45125462773993,72.59810777458199,76.079391197036387,74.130399012752932,82.250925545046755,95.39860139860329,-11.559304812831211,-6.4236733854363859,6.7298724804676819,15.78582476347159,12.400654051829575,0.0,0.0,0.0,0.0,0.0,75.674027149323919,83.840427807487075,76.573039901272452,73.592464006581437,76.681789387084351,0.0,0.0,0.0,0.0,0.0
bench press,1040.3718634306788,1031.3159193747415,1073.5462772521698,892.3986013985168,825.24023035793778,154.27396133277446,166.93500617031225,225.91937474292428,247.19621554914684,191.66351295761169,160.38132455776676,192.95475113124235,192.96585767171604,110.39531057175942,82.882764294529352,11.082394076511221,6.675960510078383,10.096783216783653,10.775129576306771,10.772669683257238,0.0,0.0,0.0,0.0,0.0,78.603048128343104,83.23264500205633,78.442612093787204,76.170596462360322,76.834948580831608,0.0,0.0,0.0,0.0,0.0
bench press,192.58617852740977,796.73961332808392,1088.0357877416486,1032.7556561085962,1022.9999999999985,128.77951460306059,148.18881118880603,144.22501028384633,200.40970793914346,279.74784039491306,409.14191690664086,469.27272727275238,534.18757712877164,526.25215960505591,303.69888934586805,0.48492801315977696,-11.00671328671322,-0.7422213081055582,-15.213200329081586,-3.4521925133674314,0.0,0.0,0.0,0.0,0.0,85.259884821057852,76.747478403948975,85.300411353350711,71.879016865487131,79.522418757714263,0.0,0.0,0.0,0.0,0.0
pushup,877.22953517063149,877.22953517078861,1080.2669683257795,1028.4738790621129,1022.6515837104062,110.65117235704086,86.916906622777887,58.562731386252203,48.733031674213699,86.763060468962294,550.45043192101787,657.22501028382032,358.79555738367253,261.22501028386694,393.41711229949971,-17.455520361988054,-12.388181818182643,-15.177601809957794,-25.267980255040523,-27.744117647059827,0.0,0.0,0.0,0.0,0.0,-72.694598930484318,-76.437552447550985,-72.152291238170577,-63.411719457011472,-58.746713286711291,0.0,0.0,0.0,0.0,0.0
pushup,639.13410119298771,906.75565610868989,1084.1484985602447,1035.821472645008,927.55368161240017,117.75935828877239,102.98436857259404,88.212669683265815,150.31098313453472,198.78897573015769,510.52036199098575,681.11764705879341,336.04936240224032,502.70752776642422,516.30522418752003,-11.633990127519601,-7.7299876593987822,-14.683233237354699,-21.012863019334564,-21.010106951871588,0.0,0.0,0.0,0.0,0.0,-77.49452900041085,-80.894524886878472,-75.295808309334049,-68.577272727271747,-69.500197449606389,0.0,0.0,0.0,0.0,0.0
pushup,510.19292472238664,894.04278074879767,1073.655697243915,886.81694775804817,653.56931303980298,172.25709584533402,150.37145207731524,105.74742904155062,165.88934594818497,166.52365281776051,581.72850678746977,827.0530645823851,315.19086795549339,427.40559440559616,325.41505553267746,-13.699489921841174,-5.4107034142341446,-18.895972850682686,-18.329123817359275,-27.388951048950183,0.0,0.0,0.0,0.0,0.0,-75.240707527767924,-84.292570958452103,-70.824508432739805,-69.751382147263968,-61.290830933767865,0.0,0.0,0.0,0.0,0.0
pushup,482.35252982316962,884.4985602634091,1037.9329494035467,1015.9913615795406,601.31262854771705,219.65446318389232,436.5351707117054,425.88153023445136,415.02180172779913,873.23858494448189,226.75935828881347,628.62032085581984,1017.3648704236314,347.3081036608898,581.01151789396579,-13.503307280950521,-17.812439325386055,-17.951328671323505,-11.356454134111575,-32.563850267370292,0.0,0.0,0.0,0.0,0.0,-72.954631838755077,-74.53284656519341,-65.63518305224467,-70.107239818997712,-36.154339777845777,0.0,0.0,0.0,0.0,0.0
pushup,919.84862196621827,805.88235294123672,1042.3068696009718,752.29123817355639,959.8325791855724,81.04031262854329,107.22912381737427,121.49732620320162,92.501851090084457,102.8963389551685,409.96544631822303,162.59810777455499,247.60057589474545,324.79308926367213,264.5697243932288,-9.2602509255493288,-19.993961332785432,-16.314467297409355,-21.462245989305309,-17.033994241052689,0.0,0.0,0.0,0.0,0.0,-79.927992595635374,-69.482044426161409,-73.52210612916403,-68.86113944878602,-72.366795557383398,0.0,0.0,0.0,0.0,0.0
pushup,643.6614561908699,706.76429452910691,1081.3467708762132,1010.5232414644166,1033.5532702591563,155.0826820238654,221.49156725629243,221.20855614972254,233.25298231181782,201.22788975726559,379.36075689027518,852.59029206100786,836.46935417508428,337.72439325371528,330.98436857261208,-23.764631838752209,-22.042418757705711,-2.7841752365296299,-22.639255450437755,-21.49099958863955,0.0,0.0,0.0,0.0,0.0,-63.865133689837265,-66.216273138632587,-84.505154257506263,-65.261826408879884,-63.329169066224893,0.0,0.0,0.0,0.0,0.0
pushup,740.9535170712544,941.59358288775104,1043.2283011106597,1020.653229123816,1024.742081447964,223.83628136571073,297.12834224598822,216.93541752361537,146.22336487042767,211.68161250515195,427.42287124653785,855.82846565208808,731.0596462359423,285.09543397775838,500.79638009053349,-21.011604278070131,-14.717560674617136,-11.170098724805115,-15.205540929662083,-28.412566844924044,0.0,0.0,0.0,0.0,0.0,-66.303426573431167,-73.861995063761483,-77.344812834224484,-74.4557260386634,-63.330830933766592,0.0,0.0,0.0,0.0,0.0
pushup,1022.9999999999985,1022.3377211024255,1046.450431921018,934.84738790616905,926.54463183876726,97.283011106546482,118.17605923491443,210.83916083916824,132.6548745371891,71.059234882752676,177.77046482927267,235.0621143562667,295.0357877416676,225.57507198679545,108.3628136569052,-21.729465240640696,-11.988741258737651,-14.548128342250418,-23.935586178525391,-9.0446853146833739,0.0,0.0,0.0,0.0,0.0,-59.063541752367755,-74.53768408062929,-69.332077334425833,-63.645865898807791,-75.835261209381116,0.0,0.0,0.0,0.0,0.0
pushup,761.44302756071409,844.02632661461928,1044.3397778692156,1010.4742904154654,1026.927601809954,392.3179761415131,346.34389140268229,226.66844919780422,78.313039901250065,90.379267791036924,286.47881530237896,234.83916083911532,185.07568901688373,227.91855203619247,243.95598519130897,-21.427922665572424,-22.324487865071362,-12.508650761003265,-16.738831756479946,-23.224545454548736,0.0,0.0,0.0,0.0,0.0,-66.219679144383704,-61.472764294530712,-65.300633484161807,-59.357865076100012,-71.303155080215546,0.0,0.0,0.0,0.0,0.0
pushup,703.96709173182433,939.37597696427031,1037.2965857671838,1017.6700946112697,1018.456190867954,314.96873714520802,366.08309337722102,359.99629781980252,262.12422871244473,242.19415878239477,568.96256684495836,673.35088440979837,901.37104072393572,401.07980255020516,169.05018510899015,-10.938440970791843,-1.2837597696403593,-4.1621308103676435,-7.1594405594416957,-17.114315096671412,0.0,0.0,0.0,0.0,0.0,-75.58812011518306,-82.363981900452302,-76.015590292059684,-78.330970793912172,-69.269440559435864,0.0,0.0,0.0,0.0,0.0
pushup,52.126696832563852,337.41382147291836,1091.9115590292499,585.13986013967519,259.38543809122996,473.00658165385215,994.85314685324727,1024.2237762237696,1027.0082270670491,1025.9716166186765,753.43850267403866,1036.0872069106561,532.42287124624886,327.26120937890062,732.28342246005366,-29.981262854803376,-40.154845742489329,-35.289197860961664,-32.146610448374808,-27.151431509664157,0.0,0.0,0.0,0.0,0.0,-48.257873303164118,-53.23947758124428,-54.844467297409473,-55.422961744137538,-61.349522830114729,0.0,0.0,0.0,0.0,0.0
pushup,304.3118881120559,822.55985191299953,1079.2937062936876,1031.523241464417,1022.9999999999985,89.365281777040025,253.26779103255069,288.37926779102099,393.76470588247031,737.23735088441299,386.77704648289773,170.11641299869376,61.283422459899683,174.40148087211043,208.6232003290695,-25.854801316326636,-16.989222542159716,-7.8545989304806687,-20.805277663522098,-37.597104072396718,0.0,0.0,0.0,0.0,0.0,-64.632930481283239,-63.138971616618704,-67.166779103250946,-62.234142328254379,-50.507655285891182,0.0,0.0,0.0,0.0,0.0
pushup,810.72151378030173,890.72274784048329,1055.5639654463084,1027.1464417934994,1022.9999999999985,766.80872069118448,916.47963800901653,661.0604689427098,467.27437268610555,395.4483751542088,778.59810777468681,950.77663512960544,944.47223364865783,717.34594816941001,695.37474290416776,-0.14691484985266268,-6.2747099958945123,-33.234821061297929,-38.471382147264329,-34.641805841217554,0.0,0.0,0.0,0.0,0.0,-70.605824763468945,-62.970423693951545,-57.93963800904568,-51.444677087617222,-52.22491155902933,0.0,0.0,0.0,0.0,0.0
pushup,1022.9999999999985,1022.9999999999985,1022.9999999999985,1022.9999999999985,1022.9999999999998,885.41793500612778,947.63842040318548,1049.9345948168934,655.60222130790726,223.02443438925252,267.29781982719783,597.58000822728263,1067.15960510079,713.95063759760626,798.95853558205658,-13.046902509256276,-9.0537556561053201,-9.1054545454556628,-12.581246400659033,-11.754849033316857,0.0,0.0,0.0,0.0,0.0,-70.511674208149998,-72.756647470174357,-64.029033319621945,-69.443718634306506,-68.090069107355333,0.0,0.0,0.0,0.0,0.0
pushup,1023.0,1023.0000000000002,1022.9999999999995,1022.9999999999993,1022.9999999999985,298.07552447551097,168.06519950616348,549.19847799245281,892.23406005727361,362.94364459050348,1050.7957219251346,916.46606334827561,1004.07791032517,1084.7619086795912,327.5438091317759,-4.2967404360396806,-10.588661044808045,0.17452941176696868,-10.76596133278364,-11.429173179759804,0.0,0.0,0.0,0.0,0.0,-59.969083504714185,-71.19084327436623,-80.229241053063063,-68.002817770464773,-65.479407651174924,0.0,0.0,0.0,0.0,0.0
pushup,1022.9999999999985,1022.9999999999985,1022.9999999999985,1022.9999999999985,1022.9999999999985,315.43356643351433,415.55162484582803,787.5820649939659,1021.9317153435201,1003.5318798848197,504.09502262448297,883.82188399848383,1054.9765528588937,925.66145619076474,447.1308103659336,-18.439720279719133,-13.217186343066199,-5.3282558617835365,-13.290666392430893,-11.496807897985139,0.0,0.0,0.0,0.0,0.0,-65.4871493212665,-56.999749074451302,-56.61178116002128,-69.826112710820723,-68.264245166597206,0.0,0.0,0.0,0.0,0.0
pushup,1023.0,1023.0000000000002,1022.9999999999995,1022.9999999999993,1022.9999999999985,1030.8843274372689,1024.1690662279016,218.89518716571064,304.73081036596415,524.64047716991377,981.00510078157481,757.33484162884179,1024.6021390374683,1079.909255450279,541.04524886854745,-16.151126696825184,-12.260935828858369,-8.8381382147264489,-8.6263726861383105,-6.7163759769641782,0.0,0.0,0.0,0.0,0.0,-61.242117235692689,-66.567295351721981,-71.0686289592756,-71.365382969970014,-71.325911147675811,0.0,0.0,0.0,0.0,0.0
pushup,1022.9999999999985,1022.9999999999985,1022.9999999999985,1022.9999999999985,1022.9999999999985,1019.8642533936603,1027.641711229945,1028.5199506376025,965.80501851079839,572.01892225409892,312.8029617442142,764.51583710425018,1064.9280131633222,1015.5709584533103,1022.9999999999985,-23.856347182228422,-24.248033730975802,-31.312875359937401,-34.864779925952163,-9.7711435623134832,0.0,0.0,0.0,0.0,0.0,-64.709514603045292,-65.647552447549586,-51.650436034550204,-56.926906622793325,-62.506429452900598,0.0,0.0,0.0,0.0,0.0
pushup,217.51254627734744,655.45495680808688,1067.4619498149364,1001.2570958453299,1022.9999999999985,418.04566022217443,514.82887700534184,401.43521184693975,345.03249691486815,660.0045248870573,375.05265322899839,551.22089675051109,1120.7638831756892,749.4278074864535,251.19744960913152,-30.131118881120308,-28.134533113943917,-28.195290004116462,-25.256375976956473,0.43030851501607759,0.0,0.0,0.0,0.0,0.0,-58.155857671736825,-57.493681612506627,-64.791427396131638,-49.091966269022556,-62.181612505147235,0.0,0.0,0.0,0.0,0.0
pushup,158.03085150147663,769.10900863866652,1087.9436445906872,1030.3512957630596,1022.9999999999985,495.08391608394925,505.14685314681873,428.87206910732556,277.95886466470529,333.4483751544123,826.4586589880056,638.58905800070522,239.74125874114677,152.58700123407047,298.70012340613772,-22.561493212666349,-21.238494446734087,-34.877449609211865,-12.903253805013245,-9.2727848621975486,0.0,0.0,0.0,0.0,0.0,-62.482064993831436,-62.598161250511801,-56.935746606336913,-70.338009049777256,-78.333192102015275,0.0,0.0,0.0,0.0,0.0
