_exercise,emg_chest_1,emg_chest_2,emg_chest_3,emg_chest_4,emg_forearm_1,emg_forearm_2,emg_forearm_3,emg_forearm_4,emg_upper_arm_1,emg_upper_arm_2,emg_upper_arm_3,emg_upper_arm_4,pitch_forearm_1,pitch_forearm_2,pitch_forearm_3,pitch_forearm_4,pitch_upper_arm_1,pitch_upper_arm_2,pitch_upper_arm_3,pitch_upper_arm_4,roll_forearm_1,roll_forearm_2,roll_forearm_3,roll_forearm_4,roll_upper_arm_1,roll_upper_arm_2,roll_upper_arm_3,roll_upper_arm_4
bicep curl,53.259563965430658,75.137392019776357,184.23323735089093,105.84245166595358,324.65240641719873,454.09419991775206,496.94940353763974,428.96709173178198,660.64705882367355,1010.1949814891651,1016.6075689016824,1024.3936651583695,-29.363858494449012,-38.061653640479996,-39.191217605920933,-33.998996297820675,0.0,0.0,0.0,0.0,-60.037881530231701,-49.164775812417368,-33.727535993413142,-25.575450431917623,0.0,0.0,0.0,0.0
bicep curl,57.148087206930626,142.72645002058007,79.412998765906323,44.198683669293658,234.84944467295239,215.39819004524992,208.51460304399444,128.22254216370177,861.19744960920127,1004.6088029618001,960.73714520765475,707.28013163299045,-40.678181818177904,-31.024607157547244,-33.666511723570864,-33.822085561496827,0.0,0.0,0.0,0.0,-22.972554504326872,-36.191061291651977,-43.170691073637087,-54.30280131633225,0.0,0.0,0.0,0.0
bicep curl,77.838338132425775,33.349238996319158,129.49280131635302,117.74290415464715,1002.2793089263529,1017.5433977787131,1022.3290826819575,574.6733854378856,1022.9999999999985,1022.9999999999985,1022.9999999999985,1022.9999999999985,-8.8047634718230299,-24.678556149738224,-33.214800493624857,-33.528765939942318,0.0,0.0,0.0,0.0,39.970366104482423,23.198078979837863,5.3328054298567622,-11.212673796795604,0.0,0.0,0.0,0.0
bicep curl,112.9325380501686,72.350473056341556,71.927190456623677,130.34183463597273,145.22665569726178,180.08802961744789,151.81777046481488,138.64541341012921,871.16495269449786,1018.5195392842687,1011.3208556149719,1022.9999999999985,-28.138095433977963,-30.473212669684102,-29.128539695597016,-29.529251336899343,0.0,0.0,0.0,0.0,-60.259440559438389,-46.281106540510784,-26.690028794728946,-12.599572192509472,0.0,0.0,0.0,0.0
bicep curl,-0.22994652407405791,109.59193747433449,202.72480460715403,109.98436857257911,160.02015631428461,200.39695598519228,191.42369395311115,189.27642945288977,626.68243521199076,993.43644590710767,1027.4603044014752,1025.1883998354574,-29.429341834636695,-33.443858494448143,-34.298103661044124,-33.295458658988132,0.0,0.0,0.0,0.0,-59.417293294938112,-48.374109419986368,-34.488473879057608,-25.037568901683699,0.0,0.0,0.0,0.0
bicep curl,65.049362402281801,93.334841628961158,63.138214726457676,128.68983957224657,48.060057589508709,250.95639654476932,621.58412176066372,574.10941999172155,262.46318387509814,884.0711641301699,1057.2801316330579,1029.6688605512122,-31.879345948169039,-28.356433566433367,-36.863290826823402,-36.977564788149103,0.0,0.0,0.0,0.0,-57.825939942410834,-61.665582064992513,-40.722969971192462,-3.8954586589774802,0.0,0.0,0.0,0.0
bicep curl,78.778691896314044,9.3829699711967383,59.9572192513685,172.32990538873867,405.9934183464635,905.36199095037693,1052.2813656931176,1028.5746606334828,1022.9999999999985,1022.9999999999985,1022.9999999999985,1022.9999999999985,-38.411809954747014,-25.009925956392973,-18.140542986423718,-13.631106540518818,0.0,0.0,0.0,0.0,9.6502550390864101,27.053488276436244,49.601431509673226,54.650115178934591,0.0,0.0,0.0,0.0
bicep curl,40.805018510878391,37.628959276038465,118.45907034145003,120.96997120524144,629.22254216381896,969.24023035797757,971.26737967902955,527.21596050993344,1022.9999999999985,1022.9999999999985,1022.9999999999985,1022.9999999999985,-44.832036199091633,-34.265742492796775,-29.800921431513075,-43.645396955989554,0.0,0.0,0.0,0.0,20.72526120938133,28.94099547511647,31.910320855612696,21.267260386667921,0.0,0.0,0.0,0.0
bicep curl,191.53064582476165,106.84944467294061,30.28506787334176,198.53846153849085,585.05388728934383,1060.0703414233512,983.90826820238397,1038.3331962155353,1022.9999999999985,1022.9999999999985,1023.1842863019318,1010.7967914438487,-35.967573015215848,-29.130115178938684,-34.160497737558181,-38.714076511726908,0.0,0.0,0.0,0.0,31.366487042373485,40.207778691896891,33.947190456599493,28.315281777043367,0.0,0.0,0.0,0.0
bicep curl,68.859317153474876,222.74084738792646,130.02550390780749,-11.348827642957849,171.53229123825616,337.04853969559991,283.06787330317798,359.60715754835002,430.49074454970116,951.5372274785326,1038.1316330727996,1027.2155491567241,-35.66403126285411,-30.054537227478857,-38.040756890171345,-40.002324146441779,0.0,0.0,0.0,0.0,-53.650078157137187,-58.136149732617213,-34.786807897974469,-16.993274372682666,0.0,0.0,0.0,0.0
bicep curl,1026.3331962150021,1035.7362402300105,816.43463595199978,59.836281365584142,109.85602632660874,112.59132044425893,102.89099136158035,81.090909090910827,386.16783216762695,344.8557383791719,226.78922254199841,158.25133689848408,-29.505495680793825,-28.19287412587521,-22.466480460716053,-25.527836281365641,0.0,0.0,0.0,0.0,-60.456649526939117,-61.833134101191519,-67.351932538049653,-63.942496914849748,0.0,0.0,0.0,0.0
bicep curl,78.556561085971595,71.574660633483717,75.282188399836613,78.380090497737299,104.96009872483508,346.24310983147018,606.19703825589897,645.92883587001575,854.52241875777474,980.68613739206887,1025.5627313862585,1024.5174825174574,-22.130703414234347,-32.065886466479192,-41.387548334022405,-55.140510078161363,0.0,0.0,0.0,0.0,-67.842443438911275,-50.177823940756518,-29.573315508014442,-11.00524475523712,0.0,0.0,0.0,0.0
bicep curl,76.579596873714252,75.182229535172041,80.491567256272504,73.155491567254614,208.62114356237538,342.12217194573378,354.75483340189248,479.91361579604239,546.72768408073409,894.93582887709442,945.0037021801362,812.14315096669361,-23.150238584948468,-32.216515837106364,-39.830592348831892,-51.164965034968354,0.0,0.0,0.0,0.0,-66.06721925133138,-50.81679144384406,-30.255113122163152,-9.2761744138145072,0.0,0.0,0.0,0.0
bicep curl,11.740847387994265,715.73385438119362,1055.3451254626698,519.30399012735097,390.54504319211253,346.65898807069658,191.08556149731302,222.23858494447552,604.17976141498616,360.00987248045061,546.39572192515425,400.04113533521695,-36.316655697244265,-34.682542163718551,-43.995199506382711,-64.561176470591221,0.0,0.0,0.0,0.0,37.749058000821385,32.301707116410185,15.850086384193798,-4.9512628547951891,0.0,0.0,0.0,0.0
bicep curl,288.97079391210656,375.21431509656003,7.4002468119985734,68.252159605098626,261.05388728921196,403.08350473060904,416.38132455777367,393.57342657341951,638.12587412594451,817.33936651591569,908.62443438910032,792.5244755244729,-28.216162073223799,-37.033755656113229,-53.160024681205947,-56.500999588643708,0.0,0.0,0.0,0.0,-52.519835458652629,-36.02824352117748,-13.679218428621965,6.6987823940831488,0.0,0.0,0.0,0.0
bicep curl,86.280542986387985,65.543397778704943,186.06746194985541,190.02879473466083,590.44960921447966,1004.1279308927135,1042.9403537637982,453.51731797619971,532.51172357046687,318.4862196626874,586.23364870439525,1045.5036610454122,-25.854923899625678,-17.725614973262001,-22.823323735088675,-22.421852735499435,0.0,0.0,0.0,0.0,-57.579712052660568,-71.795614973263071,-66.573722747840151,-67.516227067049726,0.0,0.0,0.0,0.0
bicep curl,315.97778691923565,1081.0617030029894,967.01151789386938,1022.378033730966,203.19251336896696,168.2344714109505,277.28589058004201,266.3175647881468,476.92595639659373,694.93459481699642,646.04072398189339,782.47141094202618,-48.608070752776655,-54.402887700533768,-40.614524886873021,-34.864734677086204,0.0,0.0,0.0,0.0,15.512443438911543,-0.41928013164018774,-23.30432743727869,-47.103311394493232,0.0,0.0,0.0,0.0
bicep curl,260.19950637615648,1034.8576717401479,993.07939119703371,1024.5894693541736,248.60427807490754,345.02920608805709,432.43192102016098,304.52200740431419,638.82723159198702,931.17935006180278,1030.8580830933431,926.46606334840408,-38.863364870427368,-53.340382558621712,-53.943891402711692,-43.476009872479558,0.0,0.0,0.0,0.0,-37.710740436026171,-13.684426162066512,1.4628712464071927,17.971390374335733,0.0,0.0,0.0,0.0
bicep curl,804.49008638429962,1021.5598519128342,1002.5442204853988,1021.344302756066,115.43907856848929,67.503907856844904,77.209790209788352,82.12299465241702,116.23406005758326,143.90497737556726,92.784039489915116,245.72151378044006,-24.065763883175105,-23.809247223364913,-23.631641299876417,-24.35569724393309,0.0,0.0,0.0,0.0,-65.892201563143516,-66.11229946524044,-66.245499794323322,-65.578412176058592,0.0,0.0,0.0,0.0
bicep curl,371.57877416727922,1081.1883998355684,970.86137392019612,1022.9999999999985,528.04648292888976,546.22295351703383,416.21801727681452,416.18387494859223,189.43644590704156,353.63348416297049,507.78897573019327,721.55327025928148,-25.636083916084264,-25.521155902920118,-24.720810366105937,-33.700320855617555,0.0,0.0,0.0,0.0,-64.332180172767778,-63.7571945701361,-65.227001234057454,-49.108346359518137,0.0,0.0,0.0,0.0
chest flye,297.62484574255848,691.16988893476343,987.24845742495825,944.01316330726524,103.17276840807753,213.85232414646629,237.22501028384326,257.282188399826,387.47963800912612,873.24434389157113,1056.2464006580799,665.33525298220206,-20.312854792266531,-13.965956396541682,-12.387897984372499,-23.40505141916729,0.0,0.0,0.0,0.0,21.422451665980574,13.302258329904268,31.251501439747265,53.468864664754669,0.0,0.0,0.0,0.0
chest flye,1026.9109419990632,1052.4528177704697,849.56297819839574,267.91608391600533,54.259769642107294,45.703866721519965,89.042040312635208,169.1867544220689,48.749691485127485,27.179925956434218,123.8818593172668,515.83957219259742,-21.735246812008562,-23.706226655694412,-24.146932949403581,-20.861550802139007,0.0,0.0,0.0,0.0,-61.336120937866937,-61.182116412984684,-38.121139448779168,17.961312217202106,0.0,0.0,0.0,0.0
chest flye,866.62813656936294,984.29411764706958,957.22171945698608,858.60880296166965,316.47716988897065,340.56108597281241,259.52653229125161,289.94529000407545,501.91032496914545,410.48745372271742,369.45824763470534,283.34389140268127,-6.171061291649595,-9.3451830522435824,-14.69227889757348,-13.583105717812035,0.0,0.0,0.0,0.0,83.596803784450998,79.814689428217505,74.148190045247745,75.074866310160402,0.0,0.0,0.0,0.0
chest flye,648.62525709587908,950.94693541759602,887.48169477576471,869.96585767177339,224.19251336898873,210.56931303991399,263.003290826838,340.4574249280206,726.77498971613534,630.77498971608441,438.56437679966535,427.76018099542512,-15.441007815715183,-13.260238584940623,-7.019058000821266,-0.086861373917902773,0.0,0.0,0.0,0.0,25.572743726864367,34.100600575903961,62.766199095029677,75.810283833815831,0.0,0.0,0.0,0.0
chest flye,811.51295763062546,906.35335252986215,943.56807897979195,631.00205676664234,155.10612916496441,221.46812011520689,282.1616618675373,240.21102426982915,272.6528177704655,165.34800493622777,274.78856437682725,284.61291649526095,-3.6519744960939611,-4.5726820238582846,-8.6411188811203559,-5.8069642122578653,0.0,0.0,0.0,0.0,83.822529823116128,84.339498148910309,80.842965857670009,80.84723981900396,0.0,0.0,0.0,0.0
chest flye,1008.1978609626216,976.55121349240403,1036.6631016041999,507.21513780315991,508.02426984787138,486.86754422052587,876.19292472248389,945.94981489086661,212.67585355823326,344.41999177296498,340.85767174001728,316.13081036611146,9.3984615384597987,4.0535664335652601,-1.8469847799270809,-3.7069066227885727,0.0,0.0,0.0,0.0,69.852258329903265,64.943105717809772,66.143545865901075,64.923829699709117,0.0,0.0,0.0,0.0
chest flye,471.29987659403895,624.3097490745065,658.38255861779191,531.63842040319435,192.76964212260484,271.8741258741664,341.68120115178704,288.84738790618638,442.69066227895587,804.50966680394197,966.40970793898816,469.59070341412871,-13.323846153844894,-10.862180172768957,-12.238564376800202,-11.328235294114982,0.0,0.0,0.0,0.0,31.498054298641602,25.455931715341276,24.905446318392567,59.383566433579006,0.0,0.0,0.0,0.0
chest flye,669.17030028805561,650.6157959686127,309.55039078570388,657.37104072412899,196.9099136158361,279.80666392431101,251.21308103661286,234.70505964623371,549.43192102030935,979.14150555333072,880.00041135328524,705.97737556555558,-12.742389962976155,-9.569930069931365,-12.881768819415807,-9.1261003702166192,0.0,0.0,0.0,0.0,19.411892225420317,22.282464006584735,35.626861373924442,47.491468531470872,0.0,0.0,0.0,0.0
chest flye,835.1682435211568,982.45701357473433,940.24105306447461,766.08515014402599,49.334430275608661,60.698889345973804,231.93089263685636,396.03866721513089,199.20608802959583,213.92842451665837,173.6482928835776,199.19662690251559,3.4276182640870045,-0.38250925545018449,-0.21140271493361218,-6.3985849444697198,0.0,0.0,0.0,0.0,86.420353763885771,89.9802097902095,88.418798848209022,83.186388317562319,0.0,0.0,0.0,0.0
chest flye,509.40271493215204,532.05018510899106,395.05841217604132,500.2542163718922,248.44755244769124,474.28959276013927,199.87289181403952,216.65981077745477,490.91197038278511,1058.0863842041128,953.35417523648414,922.42575071985198,-19.289448786504746,-9.3750020567640018,-9.2576306046902488,-8.5184533113945466,0.0,0.0,0.0,0.0,16.166993006993053,18.23983957219458,19.642616207321794,38.287420814489202,0.0,0.0,0.0,0.0
chest flye,545.06951871672891,968.6499382970909,995.30234471411177,1038.7219251336815,259.21472645002086,424.09790209800673,685.22747840398301,659.47264500205029,101.73097490750192,427.78815302357214,629.9888934594627,406.71410942000369,-18.738276429451282,-8.1624146441766623,-10.540279720283168,-21.125590292062867,0.0,0.0,0.0,0.0,1.8570094611271988,1.6312669683262411,6.4075113122200538,15.525442204857384,0.0,0.0,0.0,0.0
chest flye,1024.1863430686944,1023.4664747017698,987.59399424100764,899.35458658989648,169.35417523651404,129.75154257507373,161.92431098314893,181.37474290416637,477.72357054727809,848.90662278904801,979.43356643359709,1012.0752776635194,-21.745676676270534,-28.382805429863481,-32.204051830525017,-40.595540929656664,0.0,0.0,0.0,0.0,-9.6853558206254746,18.593142739614745,26.759288358701582,20.239864253392724,0.0,0.0,0.0,0.0
chest flye,413.20855614995452,1071.3751542576092,974.43767996709028,1022.9999999999985,235.86137392021681,316.84121760595968,398.09378856437741,381.095022624428,451.49197860958162,242.06787330310459,133.16659810777588,295.62772521603205,-3.5732208967506818,-13.160135746610292,-18.819765528589013,-17.354245166594303,0.0,0.0,0.0,0.0,85.276556972438556,75.724672974080804,69.592533936651179,72.142171945705527,0.0,0.0,0.0,0.0
chest flye,247.38955162498553,879.78362813676415,1050.824352118455,1028.632250102841,451.8305224187726,386.56807897979809,257.58206499381123,303.55697243935651,148.48251748252946,191.76470588236256,216.35252982311934,160.70505964624789,4.6300863842013031,-5.8038214726445982,-3.2517647058792298,8.2045907034189991,0.0,0.0,0.0,0.0,80.907811600164393,80.915281777048534,88.765166598105949,70.74629370628756,0.0,0.0,0.0,0.0
chest flye,304.59111476778583,1070.807897984474,986.10818593169256,835.17194570123422,296.99555738396646,711.33895516252983,581.51295763056464,562.25750719866846,163.2975730154468,550.28424516666632,544.93747429041389,527.63965446315831,-25.795620732206771,-19.723817359109869,-21.270962566845672,-17.119387083502712,0.0,0.0,0.0,0.0,4.398885232420918,8.3731962155500259,9.0771164129987287,11.758403948994641,0.0,0.0,0.0,0.0
chest flye,818.21760592351427,914.93048128349722,1030.5758946935346,1042.4018922254133,593.02920608796603,509.17935006166749,493.58329905392537,610.94775812421369,469.58576717402184,454.2188399835394,518.34183463596582,411.11929247215534,-14.853471822299259,-6.8227889757266347,-12.948004936244381,-14.636182640886865,0.0,0.0,0.0,0.0,51.265684903324555,33.511949814884261,15.032669683254417,15.783072809542471,0.0,0.0,0.0,0.0
chest flye,490.5446318389541,1043.4816947758961,996.66433566431044,827.9489921841556,416.21061291650813,492.19909502266307,572.1184697655367,582.37474290416822,343.42122583299368,375.14438502673084,302.15590292056947,189.23364870420718,-20.946363636363614,-17.341793500615424,-14.199070341423633,-22.251139448789754,0.0,0.0,0.0,0.0,48.535861785269688,34.420024681195244,21.05320444261304,15.423837926777333,0.0,0.0,0.0,0.0
chest flye,1019.5248868770849,960.93665158349893,940.90045248834929,151.43274372683723,367.67400246797314,342.05470999580228,298.53887289170569,359.68696009875703,83.126491155305985,37.896955984899478,151.67791032449054,145.96626902521223,-21.715045248870503,-25.602684903328829,-22.929002056769903,-13.002517482516375,0.0,0.0,0.0,0.0,6.5995948169546459,6.5147013574694803,1.9600074043629228,1.3410448375163424,0.0,0.0,0.0,0.0
chest flye,353.0407239819537,912.39366515854169,1039.5598519127807,1028.4018922254204,352.17317976144631,492.88523241468005,614.92102015636885,609.54874537223145,681.00904977368384,425.21966269018003,390.3471822295615,464.95228301111536,-6.1796009872469284,-8.3963142739631191,-12.058646647473152,-21.479214315098467,0.0,0.0,0.0,0.0,83.907544220486557,81.54007815713544,76.702825997528052,63.769707939117168,0.0,0.0,0.0,0.0
chest flye,328.90991361550596,1082.1155902921637,973.93377211024142,1022.9999999999985,676.86540518306447,521.2945290004277,691.30974907447126,675.26203208557513,188.81423282599775,281.41670094619229,509.84409707943479,571.70382558619508,-19.773544220482506,-18.426663924310652,-15.211131221718926,-17.202336487041297,0.0,0.0,0.0,0.0,15.377883998342774,5.9746194981480096,5.1161703002875267,8.0084862196658513,0.0,0.0,0.0,0.0
bench press,403.00246812019628,696.16906622800764,779.38996297807557,299.59769642112701,91.197860962558664,61.341423282591279,46.912381735905427,31.749074454952453,280.29452900035284,112.32867132865232,121.06334841627589,79.547922665563831,-6.0426367749884502,-2.7010612916499088,-3.0613986013971326,-2.2771081859312017,0.0,0.0,0.0,0.0,83.838095433978879,86.65008227066987,85.895310571782062,86.103492389962128,0.0,0.0,0.0,0.0
bench press,34.694775812507856,770.19662690274811,758.35252982292445,347.42492801313455,131.59234882765062,223.99136157961567,169.20032908264261,88.695598519113219,292.96626902507899,621.39819004538253,707.94487865068118,425.36363636357356,-10.956528177705925,-8.151094199914855,-1.6032332373526139,-15.18938708350767,0.0,0.0,0.0,0.0,79.209572192512212,78.811386260799637,85.551855203618942,75.672315919372068,0.0,0.0,0.0,0.0
bench press,573.51460304416582,950.23282599764514,1016.0863842040245,1025.6030440148074,81.364459070324429,77.538461538463821,66.703414232816385,50.780748663106934,396.84738790624158,534.73303167420374,356.51090086377212,297.6112710818532,-11.626795557384602,-9.6079267791013017,-2.7658741258747646,-7.4317153434820646,0.0,0.0,0.0,0.0,77.995746606333782,79.98421225833161,86.035503907855798,81.927947346769301,0.0,0.0,0.0,0.0
bench press,388.27231591945326,758.75894693561133,989.48004936225334,399.56437679956446,86.578774167007765,67.689016865475153,68.002468120125059,78.272315919370911,169.90333196217341,292.84204031264449,202.95721925129413,170.883175647889,-7.5089962978199667,-3.6406869600948579,2.7120773344301585,-2.7645865898811595,0.0,0.0,0.0,0.0,81.015816536404415,85.015462772523136,84.138700123404121,81.192780748663424,0.0,0.0,0.0,0.0
bench press,4.3179761416190701,793.84574249306559,1081.0300287947132,1056.7186343068508,199.28136569312943,152.38584944464654,99.150143973649861,41.261209378851845,282.59934183466595,321.46853146851225,205.81283422458048,192.99629781981645,-9.5022542163727941,-8.0474454956807246,-8.528350473056193,-3.489049773754493,0.0,0.0,0.0,0.0,80.379897161660821,81.81019744960912,81.7879884821063,85.177005347593891,0.0,0.0,0.0,0.0
bench press,395.44631838753622,621.05923488280746,565.16042780743896,407.01604278070749,131.08473879061557,76.033730974885742,57.741258741273811,104.92225421637453,253.75689016863078,156.92513368982523,138.02468120114099,142.03866721514672,-12.137786918967498,-10.485524475520908,-1.9015425750726578,-5.1898930481299592,0.0,0.0,0.0,0.0,77.009428218835453,78.72754422048834,83.228901686545811,75.69309749074155,0.0,0.0,0.0,0.0
bench press,336.00534759362745,513.6125051419566,452.06910736315297,298.56519950638,101.08350473054782,85.319621554907499,47.178527354988326,39.277663512955272,154.37392019745243,98.654463183858397,126.45742492802847,101.57548334015367,-14.568630193339375,-13.040386672151284,-13.798194158783705,-5.9081941587786533,0.0,0.0,0.0,0.0,72.819909502259094,74.739518716577578,71.652830111062613,75.469662690253514,0.0,0.0,0.0,0.0
bench press,366.16906622792209,503.30069930075342,547.22171945695402,300.19827231587749,59.534759358288348,49.692307692299849,70.337721102443453,88.326203208543504,130.37392019743911,131.98848210614835,139.6524064170942,110.10941999178026,-9.6292266556965966,-7.9543150966719933,-14.255553270256289,-2.9474866310172079,0.0,0.0,0.0,0.0,79.986417112298767,78.861353352526194,69.41748663101562,74.843348416290041,0.0,0.0,0.0,0.0
bench press,608.34389140289056,1061.8239407651897,941.98313451244508,526.6737967912992,225.57671740019975,31.470588235280317,254.55080213924504,949.82969971221075,525.32332373506654,435.68325791862731,900.15590292075979,1045.5635540929566,-15.061007815712909,-13.638922254221788,-25.798461538459524,-12.328967503084376,0.0,0.0,0.0,0.0,75.06813656931385,72.863294940346748,61.474792266559319,72.437268613738752,0.0,0.0,0.0,0.0
bench press,533.02632661469465,966.62278897582291,1027.1896338954566,703.34430275591387,34.69189633896552,72.568490333205588,71.125874125864343,31.199917729319676,217.74948580834268,289.49691484986261,237.03661044834462,167.45742492800392,-16.820308515011995,-15.731283422466111,-19.449835458651904,-3.9875976964261635,0.0,0.0,0.0,0.0,74.037322089677318,76.76167009460498,59.154179350063302,74.676890168654765,0.0,0.0,0.0,0.0
bench press,553.33854380897424,777.81859317175179,1080.1633072809345,1031.857260386671,147.638009049754,82.271493212654804,68.320032908265844,67.918552036198605,178.62237762233207,124.5944055943846,64.659810777464088,189.28589058006733,3.3975359934196701,6.7367914438519865,12.509991772931873,-5.0574249280200005,0.0,0.0,0.0,0.0,84.510645824762221,82.750337309747707,80.008194158782715,81.343414232824912,0.0,0.0,0.0,0.0
bench press,889.34101192925698,1030.659399424138,1010.3101604278055,1023.1842863019318,123.34882764293295,120.80337309748916,114.35623200330066,150.35582064994634,112.89716166188082,134.78280542985618,114.10160427808253,136.14561908679892,22.00700946112741,17.740826820235434,11.69988482106211,10.060160427803188,0.0,0.0,0.0,0.0,66.456240230357565,72.092064993832707,79.96183463595186,74.769477581243208,0.0,0.0,0.0,0.0
bench press,642.32784862213305,1020.6906622789649,990.58864664746864,1022.9999999999985,318.52283011105089,235.06622788973331,240.80872069111587,443.08844097087405,56.310571781174573,161.44385026743623,313.88934594821677,426.32702591530261,-14.545717811607156,-11.279851912780638,25.965240641715674,15.74533936651371,0.0,0.0,0.0,0.0,69.151859317148435,67.916737967916958,68.280493624020352,70.252665569725451,0.0,0.0,0.0,0.0
bench press,1023.5528589057986,987.42410530645691,1000.2751953927467,708.1563142739659,153.58329905388393,178.95557383794016,228.59029206088439,197.79925956395476,93.263677498962949,72.714109420002387,130.11271081863342,312.07280954345447,17.159876593993143,15.156145619085022,10.859308926367971,8.5437762237731381,0.0,0.0,0.0,0.0,72.792155491568266,73.914208144797499,77.686260798025373,78.809864253395432,0.0,0.0,0.0,0.0
bench press,939.63656931221192,974.62311805808838,942.2532291235151,159.40723981888493,76.593377211347487,188.86779103272477,436.85240641728018,716.05594405590546,209.28403948958868,526.41291649507252,558.62097902091318,123.14849856024294,-10.062311805841638,-7.4721674208145021,-8.1657663512953267,-9.7117482517482436,0.0,0.0,0.0,0.0,72.944695598521406,75.032882764294783,75.163795146032356,76.454965034965142,0.0,0.0,0.0,0.0
bench press,402.91032496930671,1015.9424105307681,997.22871246400143,1024.7967914438491,64.63554092967162,107.0575894693683,134.60263266146058,127.99095022624081,77.703414232839506,110.09008638420912,118.16700946112555,85.715343480044197,0.058605512137410387,-4.1159810777454311,13.082233648710725,18.077799259561544,0.0,0.0,0.0,0.0,78.704627725219225,85.958580830933428,76.175602632656492,70.165754833403952,0.0,0.0,0.0,0.0
bench press,1018.0252982308647,939.02505141897041,1051.3841217605172,814.98107774577863,370.29720279696915,216.33673385423168,783.4887700533709,934.84286301936845,780.35664335640899,1002.0584944466167,813.2214726449547,277.66145619076605,-15.224066227893735,-10.075858905799345,-9.7781225833016077,-9.7607980255031457,0.0,0.0,0.0,0.0,70.489134101186281,77.624111888108942,78.342230357870505,74.818095433977845,0.0,0.0,0.0,0.0
bench press,871.944878650747,990.15096668042486,1023.7342657342616,1024.2900041135322,439.46153846151856,330.70547099954786,213.20485396951622,134.00205676676148,79.935417523654152,75.834635952282639,77.224598930483424,87.103661044841658,-8.5618058412151914,-3.3703578774120784,14.309983545868604,13.192550390785089,0.0,0.0,0.0,0.0,79.268346359525523,82.400259152610374,76.078453311393147,74.7079802550398,0.0,0.0,0.0,0.0
bench press,1007.7935006170286,995.30810366104254,1022.5767174001884,793.16577540104356,160.43644590703769,192.40559440561384,248.96338955163273,223.11024269845828,152.7359111476851,222.80090497737436,149.68983957216258,87.703002879461607,7.9633319621538101,8.4487988482118723,10.115228301110738,11.206096256684447,0.0,0.0,0.0,0.0,81.906556972440811,81.061303990125609,77.001016042779881,75.873751542575221,0.0,0.0,0.0,0.0
bench press,414.08926367771403,1069.3652817771454,975.72768408062382,1022.9999999999985,152.88605512135459,139.97490744549631,169.08761826410623,231.41793500619778,431.94323323737098,497.98395721927426,556.08597285067174,426.93624023027684,-6.1808309337757183,-3.0373138626045373,-11.025668449203598,-8.4272274783995247,0.0,0.0,0.0,0.0,80.10624845742197,83.401575483343436,78.116487042364156,76.112661456193223,0.0,0.0,0.0,0.0
pushup,807.8770053475904,1017.7939119704444,993.26079802550214,1019.9851912793076,98.99999999998829,68.092143150956645,47.987248046069304,64.027560674633122,605.36980666395618,566.54298642523054,218.86096256681276,340.77581242291296,-10.032517482516829,-13.680427807487456,-22.112793089267608,-27.157980255040339,0.0,0.0,0.0,0.0,-79.155824763471884,-74.233146853145598,-67.169728506783855,-60.889485808307377,0.0,0.0,0.0,0.0
pushup,762.5787741671021,1010.7161661868191,959.69189633894575,1022.6256684491582,117.32949403537145,90.095433977783344,114.71698889348229,181.56437679969019,630.10983134518085,537.00904977363678,345.39983545871081,577.25298231180579,-8.6915014397357098,-7.3075565610888775,-19.132920608804959,-19.342464006581103,0.0,0.0,0.0,0.0,-79.95420814479705,-81.739621554913128,-70.787001234057925,-71.159066227889795,0.0,0.0,0.0,0.0
pushup,710.26367749909798,1059.7651172357535,973.87906211430084,851.14479638002774,171.68572603865769,113.56643356641872,128.26162073222847,172.05553270259142,831.27807486640006,568.16947758106176,316.59522830113713,368.46236116821689,-7.8337392019713583,-11.354459070346024,-22.561789387083532,-22.203118058414482,0.0,0.0,0.0,0.0,-81.078584944470677,-78.493541752360542,-67.726083916083738,-70.802686137389856,0.0,0.0,0.0,0.0
pushup,619.68078979858467,1035.2348827643466,1017.3360756889975,889.30728095419192,283.53393665165271,446.61209378855449,352.42163718635641,746.28259975334288,335.69600987262203,951.21760592362557,778.88646647449195,343.13451254632247,-7.3575236528183128,-22.201949814890515,-2.592102015628023,-31.587104072403129,0.0,0.0,0.0,0.0,-79.933874948582172,-64.862250102836256,-77.511299876597732,-75.500941999169925,0.0,0.0,0.0,0.0
pushup,795.30481283418953,961.30152200747023,908.91649526934827,825.34142328265875,80.048539695607261,125.69559851913237,103.49033319620587,98.798436857263894,183.39983545857217,166.91197038258923,318.75935828879551,292.85726038665047,-15.473352529826705,-15.537268613737902,-17.846799670918905,-18.928292883585499,0.0,0.0,0.0,0.0,-74.038778280539333,-73.937289181408119,-71.759535170709967,-70.780633484163786,0.0,0.0,0.0,0.0
pushup,659.11106540519324,917.20814479650619,1029.3578774166917,1015.9251336898379,185.22747840396696,225.84121760592404,204.37104072398861,246.46359522828644,610.20979020995117,968.48868778279814,527.88893459464941,302.63142739611806,-25.418827642945491,-6.2985849444611839,-10.350436034560092,-29.729506375976559,0.0,0.0,0.0,0.0,-62.622937062937048,-80.528839983551606,-78.157145207727751,-66.700468942821729,0.0,0.0,0.0,0.0
pushup,861.60098724811394,990.96009872484422,1021.3500617029994,1021.324146441792,277.38667215139969,274.42492801313495,164.78445084325082,190.84286301935549,665.62361168256973,919.22377622373563,413.26779103234429,358.72151378040269,-13.48445495680606,-9.3209749074447341,-11.814792266558364,-18.304454956810545,0.0,0.0,0.0,0.0,-76.573994241054322,-78.855002056767361,-78.028811188810224,-71.175059646233422,0.0,0.0,0.0,0.0
pushup,1023.5298231180569,1015.6256684491972,1008.95392842448,901.9753187988415,84.746194981497055,174.3266145619387,191.4385026737686,78.461538461516355,177.13122171947779,281.76470588237163,274.47264500203363,161.96133278481904,-18.945870012338041,-10.171678321679837,-25.834656519954216,-21.002603866717486,0.0,0.0,0.0,0.0,-64.791061291653804,-76.225491567254338,-61.592410530643257,-62.258572603869666,0.0,0.0,0.0,0.0
pushup,807.47593582890102,948.02714932133779,1038.6125051419099,1023.688194158781,382.70752776633009,289.96709173175594,148.0345536815604,74.953517071161144,305.16742081446932,174.62854792264488,224.12381735912453,206.18058412176848,-28.04955162484487,-12.874479638006228,-15.257453722749723,-16.241970382559213,0.0,0.0,0.0,0.0,-60.441382147264306,-68.750974907445922,-60.4355656108566,-59.467132867136925,0.0,0.0,0.0,0.0
pushup,820.61620732215931,987.97408473883331,1026.5993418346316,1025.476347182228,326.95187165777168,366.6997120526554,311.75689016862208,253.5199506375854,575.25627313866426,856.49321266975926,725.5923488274633,186.50555327017332,-4.5584368572570559,-0.37280954339889383,-5.2953064582488816,-7.949950637600856,0.0,0.0,0.0,0.0,-83.823899629784464,-81.743656931301061,-76.268305224187472,-78.111879884818109,0.0,0.0,0.0,0.0
pushup,1027.1170300282638,1046.0967503082557,810.21900452487102,-0.1509666804894092,960.3737145202864,209.04623611656302,299.61489099120161,73.174002468129387,407.20855614927586,854.48185931695173,881.79753187961478,80.828877005312449,-7.5556417112066088,-4.9166466474696664,-14.252059234857757,-1.4705676676278467,0.0,0.0,0.0,0.0,-76.614113533535487,-76.610610037020962,-69.114420403122082,-68.488078979838718,0.0,0.0,0.0,0.0
pushup,455.68432743738265,1066.0106951872522,981.66227889757158,1022.9999999999985,156.89921842860213,325.27972027973817,261.15055532706742,625.00534759370214,287.89016865486417,87.137392019708145,112.69354175239766,218.25421637187657,-22.928007404356713,-12.129786096253873,-9.0811476758575136,-36.270489510496162,0.0,0.0,0.0,0.0,-64.014180172768349,-63.795824763472964,-69.00700946112535,-51.519609214310222,0.0,0.0,0.0,0.0
pushup,814.73673385440736,1046.2315919375187,1001.4269847799245,1022.9999999999985,917.28794734683299,825.20773344293161,487.49773755648778,457.30810366102475,885.73961332791714,979.62320032908178,848.44837515417453,657.27930892635572,3.0735993418326113,-19.355816536414192,-37.09943644590934,-34.843122171944088,0.0,0.0,0.0,0.0,-66.410411353350028,-62.634459070339254,-52.320995475111488,-52.33727684080678,0.0,0.0,0.0,0.0
pushup,1022.9999999999985,1022.9999999999985,1022.9999999999985,1022.9999999999997,855.89263677502174,1066.9983545866153,913.79925956382749,359.13870835047192,286.85849444685044,928.76306046910418,940.4759358287705,651.48482106128472,-14.843364870421423,-4.4016495269442562,-10.292311805842832,-13.052881118878126,0.0,0.0,0.0,0.0,-73.841094199919198,-67.656388317561593,-67.348934594818076,-66.521231591923524,0.0,0.0,0.0,0.0
pushup,1022.9999999999994,1022.9999999999992,1022.9999999999995,1022.9999999999985,831.22274784000354,731.36137391987097,731.79391197009215,135.71493212663651,1026.8303167417757,1042.9744138214164,816.47206910748832,37.332373508747416,-18.255614973268329,-6.4754125874104531,-11.998044426162373,-6.3118593171510318,0.0,0.0,0.0,0.0,-70.055559440558696,-75.715921431511319,-63.600744549566187,-73.643648704239908,0.0,0.0,0.0,0.0
pushup,1022.9999999999994,1022.9999999999992,1022.9999999999995,1022.9999999999985,274.8741258736373,1039.4491155899987,882.42064993820441,388.43027560667031,1022.6028383382055,1007.426984779977,972.73879062120125,892.59399424107005,-8.8647840394973052,-7.5626219662747936,-3.469883998361464,-14.122455779516683,0.0,0.0,0.0,0.0,-72.920164541332312,-65.504886466469117,-76.690554504311535,-69.326910736319817,0.0,0.0,0.0,0.0
pushup,1022.9999999999994,1022.9999999999992,1022.9999999999995,1022.9999999999985,529.41916906581889,110.71777046463842,486.5655285889647,547.64294529000699,1023.176264911199,1006.0327437266766,928.1230769229669,262.13533525286755,-8.4982928835899756,-10.340688194160441,-6.6710061703005472,-8.4743685726029732,0.0,0.0,0.0,0.0,-71.658027560669268,-69.723833401891071,-72.184363636362448,-72.110806252571706,0.0,0.0,0.0,0.0
pushup,1022.9999999999994,1022.9999999999992,1022.9999999999995,1022.9999999999985,1026.5863842036188,1042.9531057175857,831.96709173170393,91.163718634210483,909.70505964620611,677.62813656924141,989.76511723580848,680.73508844089338,-9.6800226244365817,-14.23424640065662,-11.036728095437333,-7.6879638009035789,0.0,0.0,0.0,0.0,-70.589201974494415,-70.038460304402605,-68.567825586175303,-71.374833401893795,0.0,0.0,0.0,0.0
pushup,392.02180172783545,908.30193336091008,1043.0152200740317,1028.1254627725202,489.47675853561924,472.95228301106226,364.76758535581064,422.22542163729742,323.94405594410813,895.71740024699295,995.22171945688967,499.57795146013166,-29.859600987246633,-20.916400658163749,-31.49336487042337,-10.185183052232698,0.0,0.0,0.0,0.0,-55.580452488687804,-64.161213492392946,-59.711530234466139,-52.150209790213836,0.0,0.0,0.0,0.0
pushup,373.80049362423836,1061.3632250103929,979.64088852323914,1023.4722336487029,538.73591114767657,438.63225010281246,363.52283011101497,214.74619498150895,761.61085972843455,453.07774578348256,136.06088029613534,155.65610859733923,-19.851164129987012,-30.869090909094073,-21.839033319614256,-8.4740230357863133,0.0,0.0,0.0,0.0,-63.198066639243116,-56.999374742903008,-65.354319210206668,-76.050904977378167,0.0,0.0,0.0,0.0
