_exercise,emg_chest_1,emg_chest_2,emg_chest_3,emg_chest_4,emg_chest_5,emg_forearm_1,emg_forearm_2,emg_forearm_3,emg_forearm_4,emg_forearm_5,emg_upper_arm_1,emg_upper_arm_2,emg_upper_arm_3,emg_upper_arm_4,emg_upper_arm_5,pitch_forearm_1,pitch_forearm_2,pitch_forearm_3,pitch_forearm_4,pitch_forearm_5,pitch_upper_arm_1,pitch_upper_arm_2,pitch_upper_arm_3,pitch_upper_arm_4,pitch_upper_arm_5,roll_forearm_1,roll_forearm_2,roll_forearm_3,roll_forearm_4,roll_forearm_5,roll_upper_arm_1,roll_upper_arm_2,roll_upper_arm_3,roll_upper_arm_4,roll_upper_arm_5
bicep curl,61.272315919385434,75.137392019776357,143.39160839164114,184.23323735089093,159.76881941585424,406.82928835874543,454.09419991775206,458.70135746607639,496.94940353763974,446.76182640885742,864.71369806676796,1010.1949814891651,1047.8124228712522,1016.6075689016824,1019.8239407651159,-34.161896338958215,-38.061653640479996,-43.556371863431622,-39.191217605920933,-36.594438502672105,0.0,0.0,0.0,0.0,0.0,-55.620970793908057,-49.164775812417368,-41.087815713692429,-33.727535993413142,-27.040941999173427,0.0,0.0,0.0,0.0,0.0
bicep curl,100.28054298645561,142.72645002058007,139.66351295761083,79.412998765906323,38.812834224586524,212.6544631838658,215.39819004524992,216.96009872479988,208.51460304399444,165.27437268611158,883.07733443032282,1004.6088029618001,1073.3044014808554,960.73714520765475,836.2883587000274,-34.944232825994476,-31.024607157547244,-32.371657754011295,-33.666511723570864,-33.919284245166743,0.0,0.0,0.0,0.0,0.0,-31.074282188404435,-36.191061291651977,-37.436565199509282,-43.170691073637087,-50.380106951875341,0.0,0.0,0.0,0.0,0.0
bicep curl,16.032908268186151,33.349238996319158,83.74290415470216,129.49280131635302,147.72932949403085,942.50143973675767,1017.5433977787131,1061.9160839160766,1022.3290826819575,871.77951460287898,1022.9999999999985,1022.9999999999985,1022.9999999999985,1022.9999999999985,1022.9999999999985,-15.450974907451126,-24.678556149738224,-31.280793911973287,-33.214800493624857,-32.454405594405898,0.0,0.0,0.0,0.0,0.0,31.286042780742669,23.198078979837863,16.459366515830759,5.3328054298567622,-4.3416166186823482,0.0,0.0,0.0,0.0,0.0
bicep curl,76.916906622771805,72.350473056341556,27.977375565608924,71.927190456623677,92.905800082293652,170.03743315509331,180.08802961744789,183.06375976963113,151.81777046481488,142.22089675030634,995.30234471417191,1018.5195392842687,1040.6482928835803,1011.3208556149719,1025.6260798025492,-28.966412998766714,-30.473212669684102,-31.837758124228362,-29.128539695597016,-27.746873714521147,0.0,0.0,0.0,0.0,0.0,-55.657716988888275,-46.281106540510784,-35.384426162066021,-26.690028794728946,-20.075516248451763,0.0,0.0,0.0,0.0,0.0
bicep curl,57.912793089297509,109.59193747433449,173.82064993832793,202.72480460715403,168.83504730560932,179.39037433156528,200.39695598519228,189.07116412998562,191.42369395311115,202.98601398601167,844.85767174015621,993.43644590710767,1040.726038667231,1027.4603044014752,1014.989304812833,-30.865063759771122,-33.443858494448143,-35.140074043603796,-34.298103661044124,-33.107317976141154,0.0,0.0,0.0,0.0,0.0,-55.643447141090064,-48.374109419986368,-41.427671740019619,-34.488473879057608,-29.781883998350995,0.0,0.0,0.0,0.0,0.0
bicep curl,44.35294117647998,93.334841628961158,54.512134923887658,63.138214726457676,54.211435623222997,75.654463183946717,250.95639654476932,472.09954751144869,621.58412176066372,689.17359111476321,569.36363636385727,884.0711641301699,1064.2945290004736,1057.2801316330579,993.14273961332663,-30.771036610447553,-28.356433566433367,-30.598827642948027,-36.863290826823402,-39.926655697244009,0.0,0.0,0.0,0.0,0.0,-59.162879473468287,-61.665582064992513,-56.301641299868876,-40.722969971192462,-21.128095433964305,0.0,0.0,0.0,0.0,0.0
bicep curl,69.392842451640519,9.3829699711967383,38.023035787756854,59.9572192513685,125.12464006585387,644.29370629388188,905.36199095037693,1057.6659810777983,1052.2813656931176,997.8218839983532,1022.9999999999985,1022.9999999999985,1022.9999999999985,1022.9999999999985,1022.9999999999985,-29.342657342652799,-25.009925956392973,-22.078975730149839,-18.140542986423718,-17.125808309335458,0.0,0.0,0.0,0.0,0.0,19.90385438092035,27.053488276436244,37.297062937070464,49.601431509673226,54.658321678323809,0.0,0.0,0.0,0.0,0.0
bicep curl,3.5968737145137961,37.628959276038465,65.795146030471003,118.45907034145003,147.58864664747026,775.8737145208903,969.24023035797757,1061.9909502262433,971.26737967902955,740.61373920181893,1022.9999999999985,1022.9999999999985,1022.9999999999985,1022.9999999999985,1022.9999999999985,-40.226861373916613,-34.265742492796775,-27.67785273549817,-29.800921431513075,-37.923253805023478,0.0,0.0,0.0,0.0,0.0,23.630789798439757,28.94099547511647,33.292414644180369,31.910320855612696,26.416499382965643,0.0,0.0,0.0,0.0,0.0
bicep curl,151.72562731383044,106.84944467294061,25.364047716954786,30.28506787334176,132.33484162901482,861.96256684509137,1060.0703414233512,1068.4784039489768,983.90826820238397,1030.9962978198298,1022.9999999999985,1022.9999999999985,1022.9999999999985,1023.1842863019318,1024.9580419580404,-30.833253805015609,-29.130115178938684,-30.993702180174203,-34.160497737558181,-34.41018099547653,0.0,0.0,0.0,0.0,0.0,37.963747429044851,40.207778691896891,39.069786096254234,33.947190456599493,30.981398601396503,0.0,0.0,0.0,0.0,0.0
bicep curl,151.27725215965518,222.74084738792646,210.63430686957344,130.02550390780749,81.921020156267545,299.96585767180113,337.04853969559991,308.67544220484308,283.06787330317798,332.41505553272282,697.05923488294809,951.5372274785326,1054.9304812834584,1038.1316330727996,1005.6137392019731,-30.944590703412405,-30.054537227478857,-34.00305224187899,-38.040756890171345,-42.260218017277516,0.0,0.0,0.0,0.0,0.0,-58.702595639655499,-58.136149732617213,-49.249843685717416,-34.786807897974469,-22.415351707110215,0.0,0.0,0.0,0.0,0.0
bicep curl,1007.14825174824,1035.7362402300105,1091.7894693538567,816.43463595199978,304.93870835019533,110.20855614973469,112.59132044425893,112.03825586178409,102.89099136158035,88.740024681194171,393.39341834637099,344.8557383791719,331.85117235692667,226.78922254199841,92.604278074843819,-29.424605512133091,-28.19287412587521,-24.141726861374572,-22.466480460716053,-24.178696009873264,0.0,0.0,0.0,0.0,0.0,-60.520029617442283,-61.833134101191519,-65.71591772932868,-67.351932538049653,-65.7092102015622,0.0,0.0,0.0,0.0,0.0
bicep curl,74.528177704646055,71.574660633483717,73.03743315508116,75.282188399836613,76.830111065406157,173.46400658173664,346.24310983147018,518.7297408474833,606.19703825589897,615.74125874127083,919.80090497742879,980.68613739206887,1045.9033319621631,1025.5627313862585,1016.0403126285397,-25.417840394902779,-32.065886466479192,-38.62460715755217,-41.387548334022405,-47.970436034558482,0.0,0.0,0.0,0.0,0.0,-62.253171534341632,-50.177823940756518,-38.740695187158131,-29.573315508014442,-21.384668860544156,0.0,0.0,0.0,0.0,0.0
bicep curl,74.143973673384707,75.182229535172041,78.769230769232493,80.491567256272504,77.009049773752992,279.76799670922094,342.12217194573378,387.95310571782733,354.75483340189248,366.09913615798934,709.16248457436791,894.93582887709442,980.1332784862459,945.0037021801362,847.69436445901863,-28.783932538053541,-32.216515837106364,-35.342686137395049,-39.830592348831892,-46.092394076515355,0.0,0.0,0.0,0.0,0.0,-58.6540600575836,-50.81679144384406,-41.447330316734316,-30.255113122163152,-19.669206088022484,0.0,0.0,0.0,0.0,0.0
bicep curl,268.78486219687642,715.73385438119362,1069.4315096669168,1055.3451254626698,747.32908268185042,397.55532702590182,346.65898807069658,243.72357054704588,191.08556149731302,212.61044837516329,474.08103661036404,360.00987248045061,440.53846153851191,546.39572192515425,513.44878650757698,-36.744644179349898,-34.682542163718551,-36.564664747021467,-43.995199506382711,-56.396322501035328,0.0,0.0,0.0,0.0,0.0,35.134236939528805,32.301707116410185,29.152237762232144,15.850086384193798,0.78426162072435845,0.0,0.0,0.0,0.0,0.0
bicep curl,441.52653229127174,375.21431509656003,152.16577540095099,7.4002468119985734,100.88111888111436,319.71452077339399,403.08350473060904,443.30769230769988,416.38132455777367,392.50596462360522,711.86343068701478,817.33936651591569,932.86589880711392,908.62443438910032,815.4039489921372,-32.662369395313782,-37.033755656113229,-44.438037844513929,-53.160024681205947,-58.387474290416833,0.0,0.0,0.0,0.0,0.0,-44.022344714103454,-36.02824352117748,-25.887778691887771,-13.679218428621965,-2.5392760180916394,0.0,0.0,0.0,0.0,0.0
bicep curl,78.393665158356711,65.543397778704943,110.30933772114233,186.06746194985541,225.2385849444687,841.51048951064104,1004.1279308927135,1063.0592348827668,1042.9403537637982,807.02550390765532,415.04154668854085,318.4862196626874,385.78239407659572,586.23364870439525,834.40518305240369,-20.361332784859215,-17.725614973262001,-20.062143150968154,-22.823323735088675,-21.245141916906867,0.0,0.0,0.0,0.0,0.0,-67.143068696015092,-71.795614973263071,-70.327980255037446,-66.573722747840151,-68.853356643356307,0.0,0.0,0.0,0.0,0.0
bicep curl,771.70835047333264,1081.0617030029894,1092.5623200328846,967.01151789386938,1040.8757712875365,179.91855203618709,168.2344714109505,197.94364459073364,277.28589058004201,277.18634306869376,578.49074454962636,694.93459481699642,683.37227478403304,646.04072398189339,690.18222953521467,-51.343216783218573,-54.402887700533768,-49.112727272722253,-40.614524886873021,-35.259757301519699,0.0,0.0,0.0,0.0,0.0,8.8782887700472575,-0.41928013164018774,-10.778951048959181,-23.30432743727869,-37.42213492390858,0.0,0.0,0.0,0.0,0.0
bicep curl,748.70876182665359,1034.8576717401479,1083.1032496914827,993.07939119703371,1023.6853146853135,308.80954339781431,345.02920608805709,391.9802550391085,432.43192102016098,398.06458247629996,774.31509666814543,931.17935006180278,1078.1073632250464,1030.8580830933431,957.50349650346516,-45.747926779108063,-53.340382558621712,-56.670477169889381,-53.943891402711692,-47.679930069926421,0.0,0.0,0.0,0.0,0.0,-23.550913204433517,-13.684426162066512,-7.1581365693075485,1.4628712464071927,10.451925133696266,0.0,0.0,0.0,0.0,0.0
bicep curl,909.15713698073239,1021.5598519128342,1048.5697243932491,1002.5442204853988,1029.8992184286285,84.462772521580064,67.503907856844904,74.687371452081322,77.209790209788352,76.143562320036352,130.9354175236617,143.90497737556726,145.65693130398139,92.784039489915116,118.8757712875873,-23.67838338132443,-23.809247223364913,-24.279461127108242,-23.631641299876417,-23.834500205676772,0.0,0.0,0.0,0.0,0.0,-66.30234471410941,-66.11229946524044,-65.646577540106748,-66.245499794323322,-65.88109419991747,0.0,0.0,0.0,0.0,0.0
bicep curl,1031.0536816125455,979.01842863035176,1097.0121760591132,1047.7973673385627,780.25635540946155,559.69025092550487,530.98938708346782,507.32863019332194,453.92291238169872,369.2767585355254,179.97634718247318,126.0612505142449,120.54948580847994,104.23743315523743,176.7744138216145,-28.028002879471856,-26.585416700945608,-26.150448786506665,-26.871062937062039,-27.164385849443779,0.0,0.0,0.0,0.0,0.0,-61.94307692307855,-63.400313862608485,-63.837343068697038,-63.070725627314992,-62.726796380091749,0.0,0.0,0.0,0.0,0.0
chest flye,415.47881530248026,691.16988893476343,877.66227889768163,987.24845742495825,956.67873303166118,159.41752365286055,213.85232414646629,228.70259152612692,237.22501028384326,249.18017276841874,572.19498148927823,873.24434389157113,1079.9473467709404,1056.2464006580799,816.45166598095034,-19.021752365279156,-13.965956396541682,-8.4270876182635099,-12.387897984372499,-21.870456602224809,0.0,0.0,0.0,0.0,0.0,19.649090909089008,13.302258329904268,16.453504730569357,31.251501439747265,43.680542986433558,0.0,0.0,0.0,0.0,0.0
chest flye,1002.3928013164889,1052.4528177704697,1059.9235705471601,849.56297819839574,498.81900452468591,57.408802961749409,45.703866721519965,59.479802550397515,89.042040312635208,124.28424516662476,47.521061291673462,27.179925956434218,9.8394076512500845,123.8818593172668,343.42945290017599,-21.2683755656121,-23.706226655694412,-25.379048951047498,-24.146932949403581,-21.502163718633128,0.0,0.0,0.0,0.0,0.0,-52.374498148913545,-61.182116412984684,-61.726622788964669,-38.121139448779168,-2.4263225010086957,0.0,0.0,0.0,0.0,0.0
chest flye,952.23611682440458,984.29411764706958,989.43397778690519,957.22171945698608,917.34348004932679,368.17359111478845,340.56108597281241,274.32085561494182,259.52653229125161,298.04895104895371,493.04936240227528,410.48745372271742,392.52982311802884,369.45824763470534,338.16042780745101,-9.0913368983968805,-9.3451830522435824,-12.529847799260898,-14.69227889757348,-13.492344714109636,0.0,0.0,0.0,0.0,0.0,79.501637186341711,79.814689428217505,77.181842863017707,74.148190045247745,74.76532291238135,0.0,0.0,0.0,0.0,0.0
chest flye,750.35499794334442,950.94693541759602,971.98889345945463,887.48169477576471,782.87700534757937,214.44672974084421,210.56931303991399,250.49814890993559,263.003290826838,314.88934594820023,664.88728918136928,630.77498971608441,485.54051830516784,438.56437679966535,491.55285890578591,-18.788276429453134,-13.260238584940623,-10.101238173588595,-7.019058000821266,-4.2438379267764077,0.0,0.0,0.0,0.0,0.0,23.984792266560053,34.100600575903961,51.392060880307362,62.766199095029677,71.635043192106295,0.0,0.0,0.0,0.0,0.0
chest flye,841.0518305224341,906.35335252986215,956.62237762239613,943.56807897979195,834.38831756466436,202.06663924313236,221.46812011520689,262.33689839573987,282.1616618675373,249.04236939530114,230.30769230765944,165.34800493622777,185.71122994655875,274.78856437682725,274.17523652818443,-6.6342616207329037,-4.5726820238582846,-6.8793212669695176,-8.6411188811203559,-9.0577498971603614,0.0,0.0,0.0,0.0,0.0,81.837972027971631,84.339498148910309,82.642188399834225,80.842965857670009,79.721151789387221,0.0,0.0,0.0,0.0,0.0
chest flye,1009.9271904566145,976.55121349240403,1080.7535993418394,1036.6631016041999,859.2410530643939,502.28794734677689,486.86754422052587,622.34265734279404,876.19292472248389,1043.0353763883331,266.77951460308526,344.41999177296498,344.69148498560128,340.85767174001728,323.59234882763678,6.1267256273122115,4.0535664335652601,2.2926326614535486,-1.8469847799270809,-1.3357219251341865,0.0,0.0,0.0,0.0,0.0,66.135750719865953,64.943105717809772,60.601238173591398,66.143545865901075,68.868963389551297,0.0,0.0,0.0,0.0,0.0
chest flye,540.63883175653825,624.3097490745065,747.31838749488668,658.38255861779191,557.92965857667036,206.81694775816391,271.8741258741664,334.0164541341253,341.68120115178704,320.45701357464367,585.7716988894573,804.50966680394197,1032.7239819005113,966.40970793898816,665.61003702163293,-10.816783216782202,-10.862180172768957,-11.118288770053269,-12.238564376800202,-12.178975730151933,0.0,0.0,0.0,0.0,0.0,29.79830522418554,25.455931715341276,23.356166186755111,24.905446318392567,38.428934594829087,0.0,0.0,0.0,0.0,0.0
chest flye,769.72974084737177,650.6157959686127,387.20074043591887,309.55039078570388,408.7404360346456,265.53599341837804,279.80666392431101,255.07116412997198,251.21308103661286,245.36651583709806,818.72850678748796,979.14150555333072,985.37679967088332,880.00041135328524,768.58329905381424,-7.5533813245560903,-9.569930069931365,-10.445396955986233,-12.881768819415807,-11.546355409295613,0.0,0.0,0.0,0.0,0.0,21.151213492391619,22.282464006584735,29.8013451254674,35.626861373924442,42.053229123822106,0.0,0.0,0.0,0.0,0.0
chest flye,794.47470176887271,982.45701357473433,1069.9469354175203,940.24105306447461,750.3562320032305,51.539695598526919,60.698889345973804,115.11723570553153,231.93089263685636,347.03619909507842,187.85643767997485,213.92842451665837,200.51090086382882,173.6482928835776,169.29576306047733,-0.63319210201673115,-0.38250925545018449,1.1941423282599093,-0.21140271493361218,-3.5218428630219378,0.0,0.0,0.0,0.0,0.0,90.298946935418485,89.9802097902095,89.265199506375382,88.418798848209022,85.431727684078325,0.0,0.0,0.0,0.0,0.0
chest flye,526.45043192102924,532.05018510899106,468.27108185926778,395.05841217604132,419.60674619501555,446.26285479234684,474.28959276013927,325.1061291648644,199.87289181403952,237.89222542162918,842.57507198704764,1058.0863842041128,1103.9995886466281,953.35417523648414,934.58576717396477,-14.512768408058742,-9.3750020567640018,-5.535351707115856,-9.2576306046902488,-8.1837186343065262,0.0,0.0,0.0,0.0,0.0,16.514245166599093,18.23983957219458,25.989905388731316,19.642616207321794,25.809856026332771,0.0,0.0,0.0,0.0,0.0
chest flye,789.93459481710431,968.6499382970909,1045.9358288770163,995.30234471411177,1019.7577128753668,269.44385026743464,424.09790209800673,593.52241875781453,685.22747840398301,676.03249691483506,231.0238584945613,427.78815302357214,587.52858905806897,629.9888934594627,503.94076511716929,-13.849111476755059,-8.1624146441766623,-6.9805224187587287,-10.540279720283168,-16.80512957630944,0.0,0.0,0.0,0.0,0.0,1.0190045248869808,1.6312669683262411,2.834282188401537,6.4075113122200538,9.5931591937504166,0.0,0.0,0.0,0.0,0.0
chest flye,1018.3669271904548,1023.4664747017698,1045.8860551213388,987.59399424100764,912.70341423279103,137.6585767173915,129.75154257507373,146.73344302756678,161.92431098314893,170.33113944879224,707.34965034977802,848.90662278904801,891.97408473885059,979.43356643359709,995.95146030441572,-28.949469354177445,-28.382805429863481,-24.170670505965727,-32.204051830525017,-29.473418346359612,0.0,0.0,0.0,0.0,0.0,14.355693130408874,18.593142739614745,15.255100781576095,26.759288358701582,23.03648704236727,0.0,0.0,0.0,0.0,0.0
chest flye,784.15343480073568,1071.3751542576092,1089.8844097079173,974.43767996709028,1033.0320855614964,267.7651172357327,316.84121760595968,370.43809132047613,398.09378856437741,374.54668860550055,365.97860962559224,242.06787330310459,192.56807897980596,133.16659810777588,198.00946112716048,-10.871999177296196,-13.160135746610292,-19.987305635541894,-18.819765528589013,-17.742443438913018,0.0,0.0,0.0,0.0,0.0,77.866314273958125,75.724672974080804,68.987984368571347,69.592533936651179,70.234138214727565,0.0,0.0,0.0,0.0,0.0
chest flye,542.05018510923742,879.78362813676415,1080.3504730564141,1050.824352118455,988.78897573015058,439.23693953103401,386.56807897979809,308.45783628132045,257.58206499381123,261.63883175649318,172.49033319622598,191.76470588236256,199.09419991773748,216.35252982311934,199.41711229945093,-6.2692636775018959,-5.8038214726445982,-4.746301933359967,-3.2517647058792298,3.3815590292099706,0.0,0.0,0.0,0.0,0.0,76.968593171535474,80.915281777048534,87.192237762240836,88.765166598105949,82.169670917311109,0.0,0.0,0.0,0.0,0.0
chest flye,783.554504319476,1070.807897984474,1096.8930481283228,986.10818593169256,989.52283011099018,547.2459893049471,711.33895516252983,666.66762649110694,581.51295763056464,519.87412587411598,382.9646236118117,550.28424516666632,580.41916906622794,544.93747429041389,558.50596462360647,-22.113463595226055,-19.723817359109869,-18.473648704237199,-21.270962566845672,-20.271048951047383,0.0,0.0,0.0,0.0,0.0,7.1529823118073361,8.3731962155500259,10.604380913204761,9.0771164129987287,9.0148004936249464,0.0,0.0,0.0,0.0,0.0
chest flye,891.10119292475486,914.93048128349722,1061.0320855615214,1030.5758946935346,1007.5314685314696,573.64171122991797,509.17935006166749,483.85602632660454,493.58329905392537,585.39201974498962,488.71081859317098,454.2188399835394,480.04936240232263,518.34183463596582,521.6593994240643,-15.432418757710247,-6.8227889757266347,-4.4250966680400641,-12.948004936244381,-17.422949403538162,0.0,0.0,0.0,0.0,0.0,41.954450843267807,33.511949814884261,24.244619498141851,15.032669683254417,14.362825997531651,0.0,0.0,0.0,0.0,0.0
chest flye,849.11723570567062,1043.4816947758961,1092.133278486207,996.66433566431044,984.82394076503749,416.18222953518728,492.19909502266307,521.43932538053662,572.1184697655367,563.12464006582354,349.29740847388854,375.14438502673084,353.71781160014251,302.15590292056947,241.79144385022332,-20.139831345124303,-17.341793500615424,-15.552011517892844,-14.199070341423633,-16.498395721927778,0.0,0.0,0.0,0.0,0.0,42.153994241047982,34.420024681195244,26.523488276424374,21.05320444261304,18.052496914847762,0.0,0.0,0.0,0.0,0.0
chest flye,1045.8868778279275,960.93665158349893,1112.5927601807134,940.90045248834929,419.67873303141658,446.81777046479823,342.05470999580228,305.24228712454266,298.53887289170569,296.72727272728878,97.433772109973688,37.896955984899478,154.02961744099457,151.67791032449054,35.549979432336102,-23.941222130813401,-25.602684903328829,-25.099094199917879,-22.929002056769903,-19.039263677495917,0.0,0.0,0.0,0.0,0.0,3.8201406828483488,6.5147013574694803,4.875946524067075,1.9600074043629228,0.95618264088839022,0.0,0.0,0.0,0.0,0.0
chest flye,586.68778280562458,912.39366515854169,1079.1583710407708,1039.5598519127807,1000.4969148498548,413.27025915265182,492.88523241468005,510.28177704653024,614.92102015636885,674.29494035375785,545.98971616609845,425.21966269018003,354.96215549154982,390.3471822295615,434.96051007818085,-6.571353352530549,-8.3963142739631191,-11.02663101604333,-12.058646647473152,-16.364878650764073,0.0,0.0,0.0,0.0,0.0,81.092443438913833,81.54007815713544,78.731053064581232,76.702825997528052,70.787235705466657,0.0,0.0,0.0,0.0,0.0
chest flye,776.8251748254271,1082.1155902921637,1087.7046482928613,973.93377211024142,1033.1818181818171,525.35088440964864,521.2945290004277,618.91402714938715,691.30974907447126,675.28424516659072,188.13286713289909,281.41670094619229,435.06375976972657,509.84409707943479,547.47799259566193,-18.315331139448134,-18.426663924310652,-17.393969559851243,-15.211131221718926,-18.505133689840477,0.0,0.0,0.0,0.0,0.0,9.9228465651964743,5.9746194981480096,6.1215508021382377,5.1161703002875267,4.5947264500217946,0.0,0.0,0.0,0.0,0.0
bench press,497.88399835468977,696.16906622800764,855.8227067050916,779.38996297807557,499.10242698460843,75.658165364036549,61.341423282591279,54.431921020150838,46.912381735905427,39.132867132861008,174.46976552853036,112.32867132865232,122.84368572603542,121.06334841627589,87.953928424503545,-3.9888852324134185,-2.7010612916499088,-5.7125421637189469,-3.0613986013971326,-2.3218017276838174,0.0,0.0,0.0,0.0,0.0,85.808531468532479,86.65008227066987,84.329740847387569,85.895310571782062,87.340090497737393,0.0,0.0,0.0,0.0,0.0
bench press,304.92019744986283,770.19662690274811,984.00617030028195,758.35252982292445,398.93582887688007,173.01439736737331,223.99136157961567,231.41875771285083,169.20032908264261,100.02097902095186,399.71205265332566,621.39819004538253,775.4557795146352,707.94487865068118,563.82064993820825,-9.3644220485383673,-8.151094199914855,-1.0990785684886153,-1.6032332373526139,-6.7926079802591746,0.0,0.0,0.0,0.0,0.0,80.233146853146991,78.811386260799637,85.286556972440863,85.551855203618942,81.32972850678388,0.0,0.0,0.0,0.0,0.0
bench press,778.19703825601061,950.23282599764514,1078.4730563554253,1016.0863842040245,1015.1620732208954,64.333196215547858,77.538461538463821,81.515837104068751,66.703414232816385,48.019744960914991,477.17976141509769,534.73303167420374,476.57466063342741,356.51090086377212,280.90497737554011,-10.609115590290624,-9.6079267791013017,-3.2961620732190462,-2.7658741258747646,-8.8179185520386785,0.0,0.0,0.0,0.0,0.0,78.921871657755247,79.98421225833161,85.957877416702416,86.035503907855798,79.559489921840324,0.0,0.0,0.0,0.0,0.0
bench press,507.27354997956593,758.75894693561133,1065.0719868367657,989.48004936225334,619.5290004111564,91.454545454537183,67.689016865475153,55.5841217605916,68.002468120125059,82.152200740438502,230.3829699712451,292.84204031264449,276.81612505138844,202.95721925129413,149.75771287534934,-9.3894405594399242,-3.6406869600948579,-0.34607980254875714,2.7120773344301585,-2.1742657342678817,0.0,0.0,0.0,0.0,0.0,82.408568490334162,85.015462772523136,85.668535582064052,84.138700123404121,79.699633895514992,0.0,0.0,0.0,0.0,0.0
bench press,360.53846153873349,793.84574249306559,1081.925545043292,1081.0300287947132,970.04936240230154,189.98683669269937,152.38584944464654,110.72439325378672,99.150143973649861,59.303990127501592,310.91896338956286,321.46853146851225,256.80090497733875,205.81283422458048,216.21554915671979,-8.0676388317556409,-8.0474454956807246,-7.0049115590289812,-8.528350473056193,-6.1184162895911101,0.0,0.0,0.0,0.0,0.0,81.769300699301382,81.81019744960912,82.511131221719538,81.7879884821063,83.762673796792456,0.0,0.0,0.0,0.0,0.0
bench press,504.1809954751854,621.05923488280746,637.74043603453947,565.16042780743896,502.79391197032487,111.32373508842171,76.033730974885742,43.106540518297315,57.741258741273811,94.828054298661527,180.17811600161184,156.92513368982523,151.88770053475568,138.02468120114099,129.98190045248677,-14.387679967091133,-10.485524475520908,-5.7404566022187229,-1.9015425750726578,-5.5283792677906565,0.0,0.0,0.0,0.0,0.0,75.185623200329474,78.72754422048834,82.648120115180049,83.228901686545811,77.625832990537717,0.0,0.0,0.0,0.0,0.0
bench press,427.79020979026325,513.6125051419566,521.35911147673949,452.06910736315297,341.27025915256945,86.165364047709787,85.319621554907499,66.188811188797345,47.178527354988326,40.099958864661346,145.94199917727855,98.654463183858397,100.5845331139499,126.45742492802847,140.91814068283736,-13.061345125461811,-13.040386672151284,-14.313150966680746,-13.798194158783705,-15.637387906207019,0.0,0.0,0.0,0.0,0.0,73.791826408886266,74.739518716577578,73.773406005757806,71.652830111062613,68.538358700126253,0.0,0.0,0.0,0.0,0.0
bench press,402.81694775817238,503.30069930075342,569.06869600989398,547.22171945695402,424.91690662271276,70.14191690662328,49.692307692299849,48.034553681617453,70.337721102443453,93.966269025099706,107.14273961332481,131.98848210614835,156.9535170711691,139.6524064170942,117.54422048538621,-4.3498313451242989,-7.9543150966719933,-16.495985191281644,-14.255553270256289,-7.2724475524434729,0.0,0.0,0.0,0.0,0.0,81.054220485396328,78.861353352526194,70.926663924307931,69.41748663101562,71.55262854792403,0.0,0.0,0.0,0.0,0.0
bench press,863.15466886071454,1061.8239407651897,1091.5660222130414,941.98313451244508,778.58741258725229,119.42616207315987,31.470588235280317,43.431509666880316,254.55080213924504,632.84985602657423,435.22706705056993,435.68325791862731,653.97079391213003,900.15590292075979,1061.7116412999258,-6.0246359522820212,-13.638922254221788,-23.375376388322699,-25.798461538459524,-18.812102015626774,0.0,0.0,0.0,0.0,0.0,83.270090497737485,72.863294940346748,62.566717400241515,61.474792266559319,67.032694364462415,0.0,0.0,0.0,0.0,0.0
bench press,814.05635540943592,966.62278897582291,1055.3364870423893,1027.1896338954566,889.9095022623269,53.036199095035059,72.568490333205588,81.823529411764824,71.125874125864343,51.974084738775694,255.47552447554608,289.49691484986261,275.89222542162219,237.03661044834462,189.80049362399467,-6.0375606746178523,-15.731283422466111,-24.206783216785372,-19.449835458651904,-5.0685602632605518,0.0,0.0,0.0,0.0,0.0,81.997457836282592,76.76167009460498,64.196380090491232,59.154179350063302,68.512369395315673,0.0,0.0,0.0,0.0,0.0
bench press,411.74619498159007,777.81859317175179,1091.1744138215645,1080.1633072809345,979.07363225010147,110.82640888520967,82.271493212654804,70.862607980249123,68.320032908265844,68.469354175235793,142.09749074452543,124.5944055943846,88.459893048109663,64.659810777464088,105.54298642538407,4.3772151378046154,6.7367914438519865,9.8802385849462393,12.509991772931873,6.5421925133628287,0.0,0.0,0.0,0.0,0.0,84.513368983956425,82.750337309747707,79.691164129986007,80.008194158782715,80.854298642534587,0.0,0.0,0.0,0.0,0.0
bench press,925.42451665986607,1030.659399424138,1046.197038255857,1010.3101604278055,1024.7161661867531,113.31921020156121,120.80337309748916,103.65775401069097,114.35623200330066,130.91608391609842,140.73632250103731,134.78280542985618,111.36980666391474,114.10160427808253,132.65569724394285,20.439276018097392,17.740826820235434,8.6379391197011284,11.69988482106211,13.896939531057381,0.0,0.0,0.0,0.0,0.0,69.287564788155109,72.092064993832707,79.819387083507351,79.96183463595186,76.104319210199208,0.0,0.0,0.0,0.0,0.0
bench press,916.11394487878499,1020.6906622789649,1075.9765528588914,990.58864664746864,1029.4500205676663,283.04977375562663,235.06622788973331,211.67297408474215,240.80872069111587,331.86055121356594,89.513368983995349,161.44385026743623,244.1538461539015,313.88934594821677,369.88276429457375,-22.985047305634492,-11.279851912780638,11.227696421237985,25.965240641715674,23.136330728093235,0.0,0.0,0.0,0.0,0.0,65.234940353763605,67.916737967916958,73.152904154668576,68.280493624020352,65.373714520774186,0.0,0.0,0.0,0.0,0.0
bench press,1027.0658165364032,987.42410530645691,1102.1394487865168,1000.2751953927467,797.30193336064588,170.81201151790341,178.95557383794016,206.08720691075072,228.59029206088439,213.67050596461493,69.300287947338916,72.714109420002387,94.982723159216931,130.11271081863342,203.67749897167764,15.49143562319996,15.156145619085022,11.163558206497552,10.859308926367971,11.870695187164976,0.0,0.0,0.0,0.0,0.0,74.205002056766688,73.914208144797499,76.864138214727873,77.686260798025373,77.080411353352844,0.0,0.0,0.0,0.0,0.0
bench press,1039.4450431918945,974.62311805808838,1101.6051830519305,942.2532291235151,459.38626079775565,138.64718222962154,188.86779103272477,251.55384615404171,436.85240641728018,663.5824763472757,344.35187165777893,526.41291649507252,670.94454956794493,558.62097902091318,271.40148087192449,-9.2616585767168473,-7.4721674208145021,-7.015535170711428,-8.1657663512953267,-9.6062320032914297,0.0,0.0,0.0,0.0,0.0,72.520266968326993,75.032882764294783,75.473855203621,75.163795146032356,75.547906211435816,0.0,0.0,0.0,0.0,0.0
bench press,726.69765528610912,1015.9424105307681,1085.2801316330742,997.22871246400143,1021.9518716577528,84.796380090513168,107.0575894693683,125.77457836282366,134.60263266146058,134.60468942821558,100.10407239820246,110.09008638420912,116.12834224599167,118.16700946112555,109.61538461537461,-0.21402303578882131,-4.1159810777454311,-0.39388317564185293,13.082233648710725,19.367375565613052,0.0,0.0,0.0,0.0,0.0,84.034627725217987,85.958580830933428,82.996820238581833,76.175602632656492,69.703788564374463,0.0,0.0,0.0,0.0,0.0
bench press,823.81990950232557,939.02505141897041,1110.2470588233987,1051.3841217605172,841.42040312620145,178.72513368981245,216.33673385423168,509.5369806662635,783.4887700533709,901.67174002474815,952.78510900866604,1002.0584944466167,998.47091731789851,813.2214726449547,498.70835047286772,-10.655013986015094,-10.075858905799345,-9.1746779103258351,-9.7781225833016077,-11.208477992595778,0.0,0.0,0.0,0.0,0.0,75.366979843681875,77.624111888108942,79.589738379262812,78.342230357870505,74.960592348826125,0.0,0.0,0.0,0.0,0.0
bench press,901.12916495273532,990.15096668042486,1045.4627725216051,1023.7342657342616,1018.012751953927,386.46236116820279,330.70547099954786,276.69189633891096,213.20485396951622,156.84862196623874,76.079391197036387,75.834635952282639,74.130399012752932,77.224598930483424,82.250925545046755,-6.4236733854363859,-3.3703578774120784,6.7298724804676819,14.309983545868604,15.78582476347159,0.0,0.0,0.0,0.0,0.0,83.840427807487075,82.400259152610374,76.573039901272452,76.078453311393147,73.592464006581437,0.0,0.0,0.0,0.0,0.0
bench press,1031.3159193747415,995.30810366104254,1073.5462772521698,1022.5767174001884,892.3986013985168,166.93500617031225,192.40559440561384,225.91937474292428,248.96338955163273,247.19621554914684,192.95475113124235,222.80090497737436,192.96585767171604,149.68983957216258,110.39531057175942,6.675960510078383,8.4487988482118723,10.096783216783653,10.115228301110738,10.775129576306771,0.0,0.0,0.0,0.0,0.0,83.23264500205633,81.061303990125609,78.442612093787204,77.001016042779881,76.170596462360322,0.0,0.0,0.0,0.0,0.0
bench press,796.73961332808392,1069.3652817771454,1088.0357877416486,975.72768408062382,1032.7556561085962,148.18881118880603,139.97490744549631,144.22501028384633,169.08761826410623,200.40970793914346,469.27272727275238,497.98395721927426,534.18757712877164,556.08597285067174,526.25215960505591,-11.00671328671322,-3.0373138626045373,-0.7422213081055582,-11.025668449203598,-15.213200329081586,0.0,0.0,0.0,0.0,0.0,76.747478403948975,83.401575483343436,85.300411353350711,78.116487042364156,71.879016865487131,0.0,0.0,0.0,0.0,0.0
pushup,877.22953517078861,1017.7939119704444,1080.2669683257795,993.26079802550214,1028.4738790621129,86.916906622777887,68.092143150956645,58.562731386252203,47.987248046069304,48.733031674213699,657.22501028382032,566.54298642523054,358.79555738367253,218.86096256681276,261.22501028386694,-12.388181818182643,-13.680427807487456,-15.177601809957794,-22.112793089267608,-25.267980255040523,0.0,0.0,0.0,0.0,0.0,-76.437552447550985,-74.233146853145598,-72.152291238170577,-67.169728506783855,-63.411719457011472,0.0,0.0,0.0,0.0,0.0
pushup,906.75565610868989,1010.7161661868191,1084.1484985602447,959.69189633894575,1035.821472645008,102.98436857259404,90.095433977783344,88.212669683265815,114.71698889348229,150.31098313453472,681.11764705879341,537.00904977363678,336.04936240224032,345.39983545871081,502.70752776642422,-7.7299876593987822,-7.3075565610888775,-14.683233237354699,-19.132920608804959,-21.012863019334564,0.0,0.0,0.0,0.0,0.0,-80.894524886878472,-81.739621554913128,-75.295808309334049,-70.787001234057925,-68.577272727271747,0.0,0.0,0.0,0.0,0.0
pushup,894.04278074879767,1059.7651172357535,1073.655697243915,973.87906211430084,886.81694775804817,150.37145207731524,113.56643356641872,105.74742904155062,128.26162073222847,165.88934594818497,827.0530645823851,568.16947758106176,315.19086795549339,316.59522830113713,427.40559440559616,-5.4107034142341446,-11.354459070346024,-18.895972850682686,-22.561789387083532,-18.329123817359275,0.0,0.0,0.0,0.0,0.0,-84.292570958452103,-78.493541752360542,-70.824508432739805,-67.726083916083738,-69.751382147263968,0.0,0.0,0.0,0.0,0.0
pushup,884.4985602634091,1035.2348827643466,1037.9329494035467,1017.3360756889975,1015.9913615795406,436.5351707117054,446.61209378855449,425.88153023445136,352.42163718635641,415.02180172779913,628.62032085581984,951.21760592362557,1017.3648704236314,778.88646647449195,347.3081036608898,-17.812439325386055,-22.201949814890515,-17.951328671323505,-2.592102015628023,-11.356454134111575,0.0,0.0,0.0,0.0,0.0,-74.53284656519341,-64.862250102836256,-65.63518305224467,-77.511299876597732,-70.107239818997712,0.0,0.0,0.0,0.0,0.0
pushup,805.88235294123672,961.30152200747023,1042.3068696009718,908.91649526934827,752.29123817355639,107.22912381737427,125.69559851913237,121.49732620320162,103.49033319620587,92.501851090084457,162.59810777455499,166.91197038258923,247.60057589474545,318.75935828879551,324.79308926367213,-19.993961332785432,-15.537268613737902,-16.314467297409355,-17.846799670918905,-21.462245989305309,0.0,0.0,0.0,0.0,0.0,-69.482044426161409,-73.937289181408119,-73.52210612916403,-71.759535170709967,-68.86113944878602,0.0,0.0,0.0,0.0,0.0
pushup,706.76429452910691,917.20814479650619,1081.3467708762132,1029.3578774166917,1010.5232414644166,221.49156725629243,225.84121760592404,221.20855614972254,204.37104072398861,233.25298231181782,852.59029206100786,968.48868778279814,836.46935417508428,527.88893459464941,337.72439325371528,-22.042418757705711,-6.2985849444611839,-2.7841752365296299,-10.350436034560092,-22.639255450437755,0.0,0.0,0.0,0.0,0.0,-66.216273138632587,-80.528839983551606,-84.505154257506263,-78.157145207727751,-65.261826408879884,0.0,0.0,0.0,0.0,0.0
pushup,941.59358288775104,990.96009872484422,1043.2283011106597,1021.3500617029994,1020.653229123816,297.12834224598822,274.42492801313495,216.93541752361537,164.78445084325082,146.22336487042767,855.82846565208808,919.22377622373563,731.0596462359423,413.26779103234429,285.09543397775838,-14.717560674617136,-9.3209749074447341,-11.170098724805115,-11.814792266558364,-15.205540929662083,0.0,0.0,0.0,0.0,0.0,-73.861995063761483,-78.855002056767361,-77.344812834224484,-78.028811188810224,-74.4557260386634,0.0,0.0,0.0,0.0,0.0
pushup,1022.3377211024255,1015.6256684491972,1046.450431921018,1008.95392842448,934.84738790616905,118.17605923491443,174.3266145619387,210.83916083916824,191.4385026737686,132.6548745371891,235.0621143562667,281.76470588237163,295.0357877416676,274.47264500203363,225.57507198679545,-11.988741258737651,-10.171678321679837,-14.548128342250418,-25.834656519954216,-23.935586178525391,0.0,0.0,0.0,0.0,0.0,-74.53768408062929,-76.225491567254338,-69.332077334425833,-61.592410530643257,-63.645865898807791,0.0,0.0,0.0,0.0,0.0
pushup,844.02632661461928,948.02714932133779,1044.3397778692156,1038.6125051419099,1010.4742904154654,346.34389140268229,289.96709173175594,226.66844919780422,148.0345536815604,78.313039901250065,234.83916083911532,174.62854792264488,185.07568901688373,224.12381735912453,227.91855203619247,-22.324487865071362,-12.874479638006228,-12.508650761003265,-15.257453722749723,-16.738831756479946,0.0,0.0,0.0,0.0,0.0,-61.472764294530712,-68.750974907445922,-65.300633484161807,-60.4355656108566,-59.357865076100012,0.0,0.0,0.0,0.0,0.0
pushup,939.37597696427031,987.97408473883331,1037.2965857671838,1026.5993418346316,1017.6700946112697,366.08309337722102,366.6997120526554,359.99629781980252,311.75689016862208,262.12422871244473,673.35088440979837,856.49321266975926,901.37104072393572,725.5923488274633,401.07980255020516,-1.2837597696403593,-0.37280954339889383,-4.1621308103676435,-5.2953064582488816,-7.1594405594416957,0.0,0.0,0.0,0.0,0.0,-82.363981900452302,-81.743656931301061,-76.015590292059684,-76.268305224187472,-78.330970793912172,0.0,0.0,0.0,0.0,0.0
pushup,1002.4451254627591,1046.0967503082557,1084.1578774165584,810.21900452487102,314.3751542572295,529.11238173581273,209.04623611656302,253.73862607959302,299.61489099120161,180.87412587406226,466.71378033714853,854.48185931695173,1108.4222953514625,881.79753187961478,361.87001234033733,-8.4840575894506038,-4.9166466474696664,-12.333748251735496,-14.252059234857757,-6.0337515425715758,0.0,0.0,0.0,0.0,0.0,-75.232058412170204,-76.610610037020962,-70.967392842449172,-69.114420403122082,-71.958095433976894,0.0,0.0,0.0,0.0,0.0
pushup,822.55985191299953,1066.0106951872522,1079.2937062936876,981.66227889757158,1031.523241464417,253.26779103255069,325.27972027973817,288.37926779102099,261.15055532706742,393.76470588247031,170.11641299869376,87.137392019708145,61.283422459899683,112.69354175239766,174.40148087211043,-16.989222542159716,-12.129786096253873,-7.8545989304806687,-9.0811476758575136,-20.805277663522098,0.0,0.0,0.0,0.0,0.0,-63.138971616618704,-63.795824763472964,-67.166779103250946,-69.00700946112535,-62.234142328254379,0.0,0.0,0.0,0.0,0.0
pushup,890.72274784048329,1046.2315919375187,1055.5639654463084,1001.4269847799245,1027.1464417934994,916.47963800901653,825.20773344293161,661.0604689427098,487.49773755648778,467.27437268610555,950.77663512960544,979.62320032908178,944.47223364865783,848.44837515417453,717.34594816941001,-6.2747099958945123,-19.355816536414192,-33.234821061297929,-37.09943644590934,-38.471382147264329,0.0,0.0,0.0,0.0,0.0,-62.970423693951545,-62.634459070339254,-57.93963800904568,-52.320995475111488,-51.444677087617222,0.0,0.0,0.0,0.0,0.0
pushup,1022.9999999999985,1022.9999999999985,1022.9999999999985,1022.9999999999985,1022.9999999999985,947.63842040318548,1066.9983545866153,1049.9345948168934,913.79925956382749,655.60222130790726,597.58000822728263,928.76306046910418,1067.15960510079,940.4759358287705,713.95063759760626,-9.0537556561053201,-4.4016495269442562,-9.1054545454556628,-10.292311805842832,-12.581246400659033,0.0,0.0,0.0,0.0,0.0,-72.756647470174357,-67.656388317561593,-64.029033319621945,-67.348934594818076,-69.443718634306506,0.0,0.0,0.0,0.0,0.0
pushup,1022.9999999999995,1022.9999999999992,1022.9999999999993,1022.9999999999995,1022.9999999999985,549.19847799245281,731.36137391987097,892.23406005727361,731.79391197009215,362.94364459050348,1004.07791032517,1042.9744138214164,1084.7619086795912,816.47206910748832,327.5438091317759,0.17452941176696868,-6.4754125874104531,-10.76596133278364,-11.998044426162373,-11.429173179759804,0.0,0.0,0.0,0.0,0.0,-80.229241053063063,-75.715921431511319,-68.002817770464773,-63.600744549566187,-65.479407651174924,0.0,0.0,0.0,0.0,0.0
pushup,1022.9999999999995,1022.9999999999992,1022.9999999999993,1022.9999999999995,1022.9999999999985,893.64372686128968,1039.4491155899987,1063.3378033729045,882.42064993820441,568.84245166580479,834.78568490336556,1007.426984779977,1058.9588646647976,972.73879062120125,882.60839160836008,-6.8469197861009636,-7.5626219662747936,-4.9058272315982041,-3.469883998361464,-6.7240230357905553,0.0,0.0,0.0,0.0,0.0,-70.998809954748864,-65.504886466469117,-70.594004936233517,-76.690554504311535,-75.957408473877223,0.0,0.0,0.0,0.0,0.0
pushup,1022.9999999999995,1022.9999999999992,1022.9999999999993,1022.9999999999995,1022.9999999999985,218.89518716571064,110.71777046463842,304.73081036596415,486.5655285889647,524.64047716991377,1024.6021390374683,1006.0327437266766,1079.909255450279,928.1230769229669,541.04524886854745,-8.8381382147264489,-10.340688194160441,-8.6263726861383105,-6.6710061703005472,-6.7163759769641782,0.0,0.0,0.0,0.0,0.0,-71.0686289592756,-69.723833401891071,-71.365382969970014,-72.184363636362448,-71.325911147675811,0.0,0.0,0.0,0.0,0.0
pushup,1022.9999999999995,1022.9999999999992,1022.9999999999993,1022.9999999999995,1022.9999999999985,1005.0884409707958,1042.9531057175857,1077.8251748250141,831.96709173170393,379.58247634692725,406.47017688206324,677.62813656924141,960.44138214727855,989.76511723580848,832.04730563543501,-14.651568901688922,-14.23424640065662,-12.076833401893214,-11.036728095437333,-10.514948580829856,0.0,0.0,0.0,0.0,0.0,-69.501510078154766,-70.038460304402605,-69.863717811599031,-68.567825586175303,-68.192027972028697,0.0,0.0,0.0,0.0,0.0
pushup,655.45495680808688,908.30193336091008,1067.4619498149364,1043.0152200740317,1001.2570958453299,514.82887700534184,472.95228301106226,401.43521184693975,364.76758535581064,345.03249691486815,551.22089675051109,895.71740024699295,1120.7638831756892,995.22171945688967,749.4278074864535,-28.134533113943917,-20.916400658163749,-28.195290004116462,-31.49336487042337,-25.256375976956473,0.0,0.0,0.0,0.0,0.0,-57.493681612506627,-64.161213492392946,-64.791427396131638,-59.711530234466139,-49.091966269022556,0.0,0.0,0.0,0.0,0.0
pushup,769.10900863866652,1061.3632250103929,1087.9436445906872,979.64088852323914,1030.3512957630596,505.14685314681873,438.63225010281246,428.87206910732556,363.52283011101497,277.95886466470529,638.58905800070522,453.07774578348256,239.74125874114677,136.06088029613534,152.58700123407047,-21.238494446734087,-30.869090909094073,-34.877449609211865,-21.839033319614256,-12.903253805013245,0.0,0.0,0.0,0.0,0.0,-62.598161250511801,-56.999374742903008,-56.935746606336913,-65.354319210206668,-70.338009049777256,0.0,0.0,0.0,0.0,0.0
